9.851832636494034512e-01
9.825128940702535507e-01
9.817957090975677481e-01
9.802087466048158282e-01
9.789117099520858734e-01
9.795220801416057999e-01
9.789574877162998678e-01
9.755088961455121721e-01
9.712057863093966903e-01
9.679708243049409688e-01
9.666280098879970195e-01
9.674214911343730350e-01
9.688863795892207476e-01
9.707937864314705179e-01
9.745933408612323934e-01
9.773247474593340645e-01
9.757225257118441464e-01
9.737540818506423834e-01
9.744254890591141915e-01
9.760887478255559913e-01
9.795068208868678017e-01
9.857173375652332759e-01
9.936216315195164350e-01
1.000000000000000000e+00
9.999084444715720110e-01
9.929044465468306324e-01
9.831843012787253588e-01
9.739829706717122448e-01
9.661854915005950728e-01
9.583117160557876879e-01
9.496292001098667335e-01
9.428846095156713236e-01
9.376659443952757300e-01
9.309366130558183183e-01
9.234138004699850022e-01
9.165623950926236052e-01
9.102755821405681402e-01
9.054689168980987191e-01
9.017151402325510601e-01
8.958555864131594326e-01
8.889126255073700467e-01
8.843348490859705979e-01
8.818781090731526717e-01
8.787499618518631594e-01
8.737296670430616530e-01
8.699911496322519922e-01
8.684499649037140667e-01
8.645283364360485390e-01
8.566698202459790412e-01
8.497573778496656516e-01
8.473158970915859456e-01
8.482009338663900611e-01
8.496505630664996644e-01
8.497726371044036497e-01
8.483840449232460390e-01
8.467207861568041283e-01
8.454542680135501698e-01
8.426618243964962840e-01
8.377483443708609867e-01
8.336130863368631516e-01
8.330637531662953288e-01
8.346812341685231340e-01
8.350321970274970917e-01
8.352458265938290660e-01
8.389690847499007287e-01
8.444776757103181763e-01
8.485518967253640188e-01
8.536179692983795197e-01
8.588824121829891078e-01
8.596453749198889049e-01
8.570360423596912192e-01
8.539689321573534775e-01
8.505355998413037799e-01
8.473158970915859456e-01
8.448744163335063506e-01
8.400982696005127037e-01
8.320871608630632243e-01
8.246406445509200100e-01
8.198950163274025815e-01
8.165379802850428748e-01
8.125400555436873562e-01
8.085726493118075009e-01
8.064058351390117618e-01
8.058717612231819372e-01
8.054750205999939849e-01
8.035065767387918889e-01
7.986388744773705861e-01
7.922452467421490230e-01
7.859126560258797856e-01
7.796868800927762022e-01
7.758262886440626671e-01
7.756279183324686910e-01
7.762688070314645028e-01
7.765129551072724734e-01
7.766045106357004624e-01
7.748802148503065590e-01
7.710043641468550257e-01
7.659993285927914064e-01
7.602923673207799826e-01
7.551652577288123780e-01
7.527237769707327830e-01
7.526322214423047940e-01
7.531815546128726169e-01
7.544328135013885772e-01
7.553483687856683559e-01
7.531510361033966205e-01
7.487411114841151516e-01
7.446058534501173165e-01
7.399365215002899898e-01
7.354960783715321915e-01
7.355113376262701896e-01
7.387310403759880240e-01
7.407605212561417796e-01
7.405011139255958108e-01
7.384258552812280607e-01
7.355418561357461860e-01
7.318491164891506306e-01
7.284005249183629349e-01
7.267067476424450279e-01
7.262642292550431922e-01
7.259437849055452308e-01
7.250740073854791135e-01
7.246620075075532741e-01
7.249061555833612447e-01
7.243110446485793164e-01
7.224036378063295460e-01
7.192144535660878191e-01
7.155217139194921527e-01
7.125308999908442908e-01
7.112338633381146691e-01
7.118137150181584882e-01
7.127445295571762651e-01
7.128208258308662559e-01
7.123630481887263111e-01
7.114474929044466434e-01
7.092959379863889025e-01
7.071138645588548322e-01
7.056794946134828939e-01
7.028870509964293412e-01
6.983703115939816630e-01
6.946165349284340040e-01
6.929685354167300915e-01
6.927701651051361154e-01
6.943418683431500371e-01
6.966917935728017541e-01
6.984771263771475391e-01
6.998657185583054829e-01
6.994232001709036473e-01
6.971953489791559155e-01
6.939298684652241977e-01
6.898098696859645829e-01
6.881313516647847850e-01
6.907559434797203579e-01
6.948912015137179710e-01
6.963713492233037927e-01
6.947843867305519838e-01
6.919919431134983201e-01
6.873531296731466567e-01
6.815393536179692457e-01
6.785485396893214949e-01
6.797692800683614589e-01
6.820276497695851869e-01
6.830652790917691730e-01
6.836451307718129922e-01
6.844996490371411113e-01
6.850489822077089341e-01
6.848658711508530672e-01
6.823938718832970318e-01
6.775109103671377309e-01
6.750846888637958010e-01
6.758629108554338183e-01
6.769310586870935786e-01
6.797997985778374552e-01
6.842555009613329187e-01
6.868343150120548302e-01
6.851710562456129194e-01
6.798455763420514497e-01
6.755119479964599716e-01
6.741538743247780241e-01
6.720786156804102740e-01
6.690420239875484176e-01
6.693929868465223754e-01
6.726279488509780968e-01
6.743827631458479965e-01
6.746269112216558561e-01
6.741386150700400259e-01
6.706289864803003375e-01
6.652424695577868752e-01
6.620227668080690409e-01
6.601306192205572687e-01
6.575975829340493517e-01
6.564073610644856061e-01
6.577043977172155609e-01
6.592761009552291496e-01
6.583605456709494819e-01
6.550492873928036586e-01
6.528366954557939250e-01
6.532334360789818772e-01
6.519821771904659169e-01
6.477095858638264314e-01
6.445661793877985879e-01
6.458021790215765501e-01
6.497085482345041907e-01
6.511276589251381308e-01
6.495864741966002054e-01
6.485641041291542175e-01
6.483504745628222432e-01
6.470686971648306196e-01
6.442915128025147320e-01
6.410870693075348958e-01
6.391338847010711310e-01
6.396221808526870722e-01
6.418195135349590297e-01
6.434522537919249441e-01
6.429486983855707827e-01
6.404461806085390840e-01
6.375316629535812130e-01
6.360057374797813967e-01
6.346324045533616731e-01
6.329844050416577605e-01
6.335184789574875852e-01
6.349681081575976327e-01
6.363414410840175783e-01
6.381572923978393597e-01
6.389202551347391568e-01
6.389202551347391568e-01
6.374095889156773387e-01
6.338541825617236558e-01
6.308786278878139031e-01
6.284371471297341971e-01
6.267586291085542882e-01
6.283608508560442063e-01
6.316415906247138112e-01
6.311227759636219847e-01
6.276284066286202945e-01
6.274147770622883202e-01
6.288644062623981457e-01
6.259956663716543801e-01
6.202734458449049582e-01
6.169164098025452514e-01
6.158177434614093837e-01
6.149021881771293829e-01
6.159398174993133690e-01
6.211737418744468497e-01
6.280709250160221302e-01
6.341898861659596154e-01
6.409192175054170271e-01
6.481826227607042634e-01
6.552629169591356328e-01
6.643421735282447615e-01
6.760917996765037907e-01
6.888943144016845821e-01
7.014984588152713973e-01
7.119357890560624735e-01
7.192754905850398117e-01
7.234260078737753119e-01
7.219458601641896012e-01
7.155217139194921527e-01
7.062593462935270461e-01
6.925107577745902576e-01
6.774803918576617345e-01
6.648304696798609248e-01
6.522568437757498838e-01
6.404614398632770822e-01
6.323435163426618377e-01
6.270485549485762533e-01
6.220740379039888523e-01
6.178167058320871430e-01
6.140629291665395950e-01
6.091647083956419628e-01
6.056855983153782708e-01
6.058839686269721359e-01
6.081270790734580878e-01
6.089358195745719904e-01
6.069521164586322293e-01
6.044038209173864251e-01
6.028931546983244960e-01
6.016113773003326504e-01
5.998718222602008598e-01
5.977507858516190042e-01
5.955839716788232652e-01
5.956450086977751468e-01
5.973235267189550557e-01
5.973693044831690502e-01
5.967131565294350182e-01
5.963164159062471770e-01
5.945158238471633938e-01
5.915402691732535301e-01
5.898007141331216285e-01
5.894192327646717855e-01
5.883510849330119141e-01
5.878780480361338601e-01
5.895107882930997745e-01
5.914181951353495448e-01
5.920438245796075805e-01
5.908078249458296183e-01
5.876491592150638876e-01
5.838038270210883507e-01
5.819574571977903510e-01
5.832239753410443095e-01
5.835596789452802691e-01
5.814539017914365227e-01
5.818353831598863657e-01
5.851161229285561927e-01
5.855586413159581394e-01
5.812402722251045484e-01
5.761284218878749419e-01
5.735648670918912506e-01
5.728476821192052260e-01
5.719931638538773289e-01
5.709097567674794593e-01
5.703299050874354181e-01
5.708182012390514704e-01
5.720694601275673197e-01
5.725577562791833719e-01
5.720542008728293215e-01
5.704977568895535089e-01
5.676595355082857397e-01
5.657216101565598620e-01
5.648670918912319650e-01
5.628681295205542057e-01
5.610370189519943152e-01
5.615253151036103674e-01
5.631122775963621763e-01
5.633411664174322597e-01
5.619373149815363178e-01
5.604876857814263813e-01
5.598010193182165750e-01
5.596331675160984842e-01
5.598010193182165750e-01
5.604113895077363905e-01
5.619067964720603214e-01
5.629444257942441965e-01
5.624561296426282553e-01
5.625629444257942424e-01
5.627307962279122222e-01
5.606555375835444721e-01
5.576952421643726066e-01
5.560319833979308068e-01
5.553300576799830024e-01
5.546433912167729741e-01
5.545060579241309906e-01
5.554063539536728822e-01
5.569322794274726984e-01
5.584276863917966294e-01
5.578478347117525882e-01
5.548417615283669502e-01
5.520950956755271699e-01
5.507827997680592169e-01
5.511185033722952875e-01
5.531479842524490431e-01
5.555742057557908620e-01
5.570390942106386856e-01
5.577105014191106047e-01
5.575884273812066194e-01
5.568712424085207058e-01
5.564134647663808719e-01
5.558183538315988326e-01
5.545976134525589796e-01
5.531632435071870413e-01
5.515305032502212379e-01
5.505844294564652408e-01
5.522934659871211460e-01
5.563371684926908811e-01
5.602587969603564089e-01
5.612964262825402839e-01
5.600756859035004309e-01
5.588396862697224687e-01
5.575121311075167396e-01
5.558336130863368307e-01
5.546433912167729741e-01
5.556505020294808528e-01
5.585955381939146092e-01
5.609912411877804317e-01
5.620593890194403031e-01
5.614032410657062711e-01
5.580309457686086771e-01
5.531479842524490431e-01
5.503097628711813849e-01
5.504165776543473720e-01
5.516830957976011085e-01
5.536515396588030935e-01
5.561693166905727903e-01
5.585345011749626165e-01
5.599383526108585585e-01
5.590533158360545540e-01
5.564745017853327536e-01
5.554216132084108803e-01
5.554979094821008712e-01
5.544907986693929924e-01
5.527970213934751964e-01
5.507675405133212188e-01
5.505539109469893555e-01
5.548875392925809447e-01
5.582293160802026533e-01
5.549180578020569410e-01
5.496230964079713566e-01
5.458082827234718160e-01
5.417645802179020809e-01
5.379039887691885458e-01
5.353556932279427416e-01
5.346995452742087096e-01
5.361339152195806479e-01
5.379345072786645421e-01
5.385601367229224667e-01
5.378887295144505476e-01
5.358592486342966810e-01
5.324869533371989760e-01
5.297708059938353031e-01
5.298623615222632921e-01
5.316019165623950826e-01
5.320444349497970293e-01
5.297402874843593068e-01
5.273903622547074788e-01
5.276497695852533365e-01
5.279396954252754126e-01
5.265968810083314633e-01
5.240028077028717757e-01
5.195928830835900847e-01
5.163731803338724724e-01
5.171971800897244842e-01
5.188146610919522894e-01
5.196081423383280828e-01
5.215918454542680660e-01
5.225226599932859539e-01
5.202795495468001130e-01
5.177312540055543089e-01
5.162205877864924908e-01
5.143436994537187168e-01
5.121005890072328759e-01
5.104525894955289633e-01
5.102389599291971001e-01
5.119022186956388998e-01
5.144810327463607003e-01
5.170140690328685062e-01
5.177617725150303052e-01
5.149540696432385323e-01
5.098574785607470350e-01
5.062562944425793576e-01
5.064546647541734448e-01
5.088808862575151526e-01
5.120395519882808832e-01
5.147251808221686709e-01
5.137180700094607921e-01
5.097659230323190460e-01
5.070802941984312584e-01
5.066835535752434172e-01
5.063783684804834540e-01
5.045319986571854542e-01
5.022888882106997244e-01
5.014191106906338291e-01
5.027771843623157766e-01
5.040589617603076222e-01
5.032807397686697160e-01
5.031128879665517362e-01
5.032197027497177233e-01
5.012817773979918456e-01
4.977416302987762164e-01
4.944914090395824413e-01
4.939725943784906148e-01
4.956205938901943053e-01
4.957731864375743980e-01
4.936521500289925424e-01
4.931943723868526530e-01
4.962462233344522855e-01
4.992217780083621492e-01
4.988097781304360878e-01
4.959410382396923778e-01
4.938962981048006240e-01
4.939268166142766203e-01
4.946287423322244248e-01
4.945066682943204395e-01
4.940183721427046093e-01
4.937131870479445350e-01
4.929349650563065732e-01
4.924314096499526894e-01
4.921872615741447743e-01
4.899441511276588779e-01
4.857631153294472148e-01
4.826197088534195934e-01
4.830317087313454882e-01
4.861598559526352781e-01
4.897000030518509628e-01
4.927823725089265916e-01
4.939725943784906148e-01
4.930722983489486677e-01
4.912106692709128364e-01
4.889217810602130010e-01
4.874416333506271237e-01
4.856563005462812832e-01
4.812921536912136422e-01
4.779961546678060391e-01
4.804681539353617414e-01
4.863887447737052505e-01
4.899441511276588779e-01
4.885250404370249933e-01
4.848475600451673251e-01
4.820703756828516040e-01
4.809106723227637437e-01
4.812005981627856532e-01
4.816583758049257091e-01
4.817346720786156999e-01
4.822687459944455246e-01
4.835200048829615405e-01
4.850917081209754067e-01
4.857478560747092167e-01
4.827112643818475823e-01
4.764702291940061674e-01
4.720908230842005282e-01
4.711600085451826403e-01
4.727927488021484992e-01
4.760277108066041096e-01
4.781640064699240189e-01
4.788659321878719899e-01
4.788964506973479862e-01
4.781334879604480226e-01
4.776299325540940277e-01
4.771874141666921365e-01
4.758598590044861854e-01
4.741355632190923375e-01
4.724265266884364878e-01
4.709158604693747252e-01
4.709768974883266623e-01
4.731284524063844033e-01
4.755088961455122831e-01
4.755241554002502258e-01
4.721976378673665153e-01
4.676656392101809501e-01
4.659260841700491040e-01
4.670705282753989662e-01
4.678792687765129243e-01
4.684591204565569100e-01
4.700460829493087744e-01
4.719077120273446058e-01
4.735099337748344683e-01
4.744407483138523562e-01
4.734183782464064794e-01
4.702902310251167450e-01
4.668111209448530530e-01
4.649800103762932180e-01
4.651326029236731441e-01
4.659871211890010967e-01
4.670400097659229699e-01
4.680928983428450096e-01
4.690542313913388939e-01
4.699850459303567818e-01
4.691763054292428792e-01
4.661702322458570191e-01
4.635761589403972760e-01
4.639423810541093429e-01
4.661397137363810783e-01
4.673451948606830442e-01
4.683523056733909229e-01
4.700155644398327781e-01
4.709158604693747252e-01
4.712668233283486274e-01
4.713583788567766164e-01
4.704886013367106656e-01
4.688406018250068086e-01
4.671468245490889570e-01
4.674977874080629703e-01
4.705648976104006564e-01
4.721671193578905190e-01
4.707327494125187473e-01
4.697866756187626947e-01
4.702444532609027505e-01
4.694814905240027869e-01
4.668568987090669919e-01
4.646900845362712529e-01
4.641865291299172580e-01
4.646443067720573139e-01
4.663838618121891599e-01
4.693288979766228053e-01
4.705343791009246601e-01
4.686574907681508306e-01
4.663075655384991691e-01
4.645527512436293249e-01
4.620502334665975153e-01
4.587694936979277438e-01
4.567400128177739882e-01
4.563585314493239786e-01
4.563585314493239786e-01
4.581133457441937673e-01
4.609973448896756421e-01
4.608600115970335476e-01
4.561296426282540062e-01
4.499954222235785783e-01
4.468062379833369624e-01
4.473555711539047852e-01
4.493545335245826000e-01
4.499038666951505894e-01
4.495376445814386890e-01
4.511703848384045479e-01
4.540086062196722616e-01
4.558397167882320966e-01
4.573046052430798647e-01
4.580370494705038320e-01
4.563737907040619213e-01
4.531235694448683127e-01
4.502548295541244916e-01
4.490188299203466404e-01
4.490798669392986331e-01
4.493697927793207092e-01
4.497817926572466041e-01
4.492934965056306074e-01
4.485152745139928121e-01
4.471572008423108646e-01
4.433729056672872093e-01
4.403820917386394029e-01
4.402142399365214787e-01
4.407177953428754735e-01
4.416638691366313596e-01
4.444105349894710844e-01
4.480727561265907544e-01
4.503158665730765953e-01
4.507736442152164846e-01
4.496292001098666780e-01
4.475234229560227650e-01
4.448988311410869700e-01
4.435254982146671909e-01
4.445936460463270623e-01
4.456007568590349410e-01
4.470656453138828756e-01
4.489272743919187070e-01
4.477675710318308466e-01
4.444257942442090825e-01
4.413129062776573464e-01
4.377422406689656653e-01
4.340952787865839935e-01
4.333170567949460317e-01
4.364909817804498160e-01
4.419537949766533247e-01
4.485152745139928121e-01
4.576250495925779371e-01
4.689779351176489031e-01
4.802392651142917690e-01
4.913632618182928180e-01
5.014496292001098254e-01
5.100863673818171184e-01
5.211493270668660083e-01
5.356761375774405920e-01
5.490737632374035337e-01
5.553453169347210006e-01
5.538804284798730659e-01
5.501571703238014033e-01
5.444959868160038630e-01
5.341959898678548813e-01
5.205999938962981854e-01
5.058137760551774109e-01
4.911801507614367290e-01
4.783471175267799969e-01
4.684743797112949082e-01
4.615771965697195167e-01
4.577776421399578632e-01
4.567857905819879827e-01
4.562974944303719860e-01
4.538102359080781745e-01
4.501174962614825081e-01
4.477828302865688448e-01
4.467146824549089734e-01
4.459822382274850061e-01
4.454939420758689539e-01
4.455244605853449502e-01
4.463484603411969065e-01
4.462111270485549230e-01
4.452650532547990370e-01
4.452650532547990370e-01
4.430524613177891924e-01
4.378490554521317635e-01
4.345225379192480530e-01
4.342631305887020843e-01
4.350871303445538740e-01
4.349497970519119461e-01
4.359263893551438285e-01
4.403057954649494121e-01
4.425031281472213140e-01
4.400769066438794952e-01
4.377422406689656653e-01
4.372234260078737833e-01
4.365520187994018086e-01
4.353923154393139483e-01
4.356059450056459226e-01
4.376201666310616800e-01
4.383831293679616437e-01
4.369335001678518737e-01
4.348429822687459589e-01
4.322183904538101640e-01
4.302499465926084010e-01
4.288460951567124591e-01
4.268776512955106961e-01
4.250160222174748648e-01
4.249397259437848740e-01
4.280831324198126620e-01
4.323252052369761511e-01
4.353160191656239575e-01
4.370403149510178054e-01
4.360332041383099266e-01
4.320505386516922397e-01
4.285256508072145532e-01
4.285866878261665458e-01
4.308145390179143885e-01
4.324930570390942419e-01
4.343699453718680714e-01
4.354228339487899446e-01
4.339884640034180063e-01
4.313486129337442687e-01
4.282204657124546454e-01
4.260231330301827435e-01
4.254127628406629280e-01
4.255806146427808523e-01
4.262520218512528269e-01
4.266487624744407237e-01
4.269234290597246906e-01
4.275948362681966652e-01
4.284188360240485660e-01
4.294259468367564447e-01
4.298074282052065098e-01
4.289223914304026164e-01
4.282052064577166473e-01
4.279152806176945711e-01
4.281899472029786491e-01
4.292580950346385205e-01
4.299600207525864914e-01
4.307992797631763904e-01
4.309366130558183738e-01
4.282967619861446362e-01
4.242835779900508975e-01
4.230323191015351036e-01
4.234748374889369948e-01
4.181340983306374715e-01
4.123966185491500513e-01
4.175084688863796023e-01
4.266945402386547181e-01
4.307840205084383922e-01
4.306314279610582996e-01
4.289376506851406146e-01
4.269692068239386851e-01
4.253517258217109354e-01
4.254432813501389243e-01
4.265877254554887310e-01
4.276558732871486024e-01
4.302652058473463992e-01
4.339732047486800082e-01
4.356364635151219189e-01
4.347209082308419736e-01
4.332865382854700909e-01
4.318674275948362618e-01
4.294869838557084374e-01
4.266182439649647273e-01
4.249092074343088776e-01
4.259620960112307508e-01
4.299295022431104951e-01
4.341410565507979880e-01
4.358958708456678321e-01
4.360179448835718174e-01
4.370555742057558035e-01
4.368724631488997145e-01
4.320657979064302379e-01
4.275643177587206689e-01
4.280983916745506601e-01
4.305703909421063069e-01
4.317148350474563356e-01
4.324930570390942419e-01
4.357890560625018450e-01
4.399700918607135081e-01
4.411297952208013684e-01
4.390545365764336183e-01
4.359263893551438285e-01
4.337137974181340949e-01
4.334391308328501835e-01
4.337900936918240857e-01
4.328592791528061978e-01
4.325846125675222309e-01
4.340495010223699990e-01
4.360789819025239211e-01
4.386272774437695587e-01
4.402294991912594768e-01
4.391308328501236091e-01
4.364604632709738197e-01
4.347514267403179700e-01
4.342783898434400824e-01
4.332102420117801000e-01
4.317606128116703301e-01
4.317758720664083283e-01
4.316537980285043430e-01
4.295175023651844337e-01
4.269234290597246906e-01
4.240394299142429824e-01
4.199804681539353046e-01
4.168370616779076276e-01
4.177373577074495747e-01
4.218268379772332488e-01
4.245429853205969772e-01
4.245124668111209809e-01
4.242072817163609066e-01
4.236121707815790893e-01
4.197515793328653322e-01
4.134952848902859190e-01
4.094058046205023560e-01
4.089175084688863593e-01
4.105349894711142200e-01
4.124576555681020440e-01
4.137699514755699970e-01
4.154179509872737430e-01
4.165623950926237162e-01
4.151890621662037706e-01
4.128543961912899407e-01
4.101687673574022086e-01
4.064912869655445404e-01
4.055757316812646507e-01
4.076204718161565710e-01
4.074831385235144210e-01
4.063997314371165515e-01
4.089327677236243574e-01
4.115878780480360932e-01
4.099398785363322362e-01
4.075594347972045783e-01
4.066743980224006294e-01
4.055757316812646507e-01
4.042176580095828142e-01
4.041566209906308771e-01
4.060945463423566437e-01
4.087343974120303813e-01
4.105349894711142200e-01
4.099093600268562398e-01
4.069032868434706018e-01
4.042786950285348069e-01
4.016388439588610693e-01
3.969542527542955224e-01
3.939024018066957233e-01
3.949552903836175966e-01
3.974883266701254025e-01
4.004486220892972126e-01
4.027222510452589388e-01
4.024781029694509682e-01
4.007995849482711148e-01
3.987548448133793610e-01
3.962523270363475514e-01
3.945738090151676980e-01
3.950315866573075874e-01
3.962370677816095532e-01
3.967406231879634371e-01
3.977172154911953195e-01
3.993346964934232357e-01
3.999145481734672214e-01
3.971678823206274966e-01
3.909726248970000206e-01
3.868526261177404613e-01
3.880581072420422606e-01
3.899807733390301401e-01
3.905148472548600758e-01
3.920255134739218938e-01
3.935056611835077711e-01
3.929868465224158336e-01
3.921628467665638773e-01
3.933072908719137950e-01
3.961302529984435661e-01
3.970458082827235113e-01
3.935972167119358156e-01
3.899197363200780919e-01
3.896450697347941805e-01
3.908658101138340890e-01
3.912930692464979820e-01
3.916135135959959435e-01
3.922849208044679181e-01
3.918881801812799659e-01
3.905758842738120684e-01
3.887447737052522334e-01
3.863795892208624072e-01
3.850978118228706171e-01
3.856471449934385509e-01
3.861507003997924903e-01
3.866695150608844278e-01
3.897976622821741066e-01
3.931546983245338689e-01
3.915372173223059526e-01
3.876308481093783120e-01
3.853267006439405340e-01
3.833124790185247766e-01
3.814508499404888897e-01
3.807031464583269798e-01
3.818475905636768419e-01
3.852198858607745469e-01
3.874172185430463378e-01
3.858455153050324715e-01
3.847926267281105983e-01
3.863490707113864109e-01
3.858912930692464660e-01
3.834803308206427008e-01
3.834040345469527100e-01
3.841212195196386237e-01
3.842738120670186608e-01
3.859828485976745105e-01
3.867763298440503594e-01
3.846858119449446112e-01
3.833429975280007729e-01
3.838618121890927104e-01
3.843501083407086516e-01
3.843958861049226461e-01
3.834803308206427008e-01
3.828241828669087243e-01
3.837549974059267233e-01
3.842890713217566589e-01
3.837092196417126733e-01
3.832056642353587339e-01
3.827936643574327280e-01
3.822138126773887978e-01
3.803674428540910202e-01
3.774681844538712583e-01
3.758507034516434531e-01
3.760490737632373737e-01
3.770714438306833061e-01
3.782006286812951701e-01
3.800164799951170069e-01
3.823664052247687795e-01
3.825647755363628111e-01
3.798944059572130771e-01
3.765068514053773185e-01
3.748741111484115152e-01
3.753166295358135174e-01
3.758659627063814512e-01
3.757744071779534623e-01
3.762932218390453998e-01
3.777733695486312215e-01
3.786431470686971723e-01
3.778954435865352068e-01
3.758049256874294586e-01
3.726157414471877316e-01
3.695333719901120473e-01
3.684194463942380704e-01
3.695333719901120473e-01
3.721427045503097331e-01
3.752403332621234155e-01
3.782616657002471627e-01
3.803979613635670165e-01
3.800622577593310014e-01
3.767967772453993391e-01
3.732871486556596508e-01
3.721121860408337367e-01
3.712576677755057841e-01
3.691366313669240395e-01
3.670308542130802376e-01
3.664052247688223130e-01
3.686025574510941039e-01
3.713950010681478231e-01
3.723715933713797610e-01
3.722342600787377775e-01
3.723715933713797610e-01
3.729056672872096967e-01
3.721274452955717349e-01
3.701590014343699164e-01
3.694875942258980528e-01
3.709830011902218727e-01
3.716849269081697882e-01
3.698385570848719550e-01
3.679921872615741218e-01
3.672597430341501545e-01
3.661305581835382905e-01
3.641315958128604757e-01
3.632618182927945805e-01
3.652455214087343971e-01
3.679158909878841310e-01
3.690603350932340487e-01
3.690298165837579969e-01
3.687551499984740855e-01
3.686483352153080983e-01
3.674886318552201825e-01
3.651844843897824044e-01
3.638721884823145070e-01
3.635517441328165456e-01
3.634144108401745621e-01
3.648030030213324504e-01
3.681752983184301553e-01
3.707693716238898429e-01
3.705862605670339205e-01
3.679921872615741218e-01
3.639484847560044978e-01
3.607440412610248281e-01
3.588213751640370042e-01
3.571886349070711453e-01
3.574480422376170585e-01
3.616443372905667197e-01
3.674123355815301917e-01
3.690908536027100451e-01
3.667561876277962152e-01
3.640705587939084831e-01
3.618579668568986940e-01
3.604998931852168020e-01
3.600115970336008608e-01
3.597827082125308884e-01
3.603625598925748186e-01
3.617053743095187124e-01
3.627887813959165819e-01
3.625904110843226613e-01
3.606677449873348373e-01
3.579668568987091071e-01
3.558610797448652496e-01
3.550065614795373525e-01
3.543961912900174260e-01
3.521225623340555888e-01
3.500015259254737887e-01
3.525650807214575355e-01
3.581652272103030277e-01
3.613849299600207510e-01
3.621478926969206591e-01
3.619953001495407330e-01
3.597674489577929458e-01
3.562730796227912555e-01
3.539536729026154793e-01
3.530991546372875267e-01
3.531449324015015212e-01
3.548539689321573709e-01
3.586230048524429725e-01
3.605609302041687947e-01
3.576464125492110901e-01
3.547776726584673246e-01
3.553422650837733121e-01
3.561052278206732202e-01
3.556779686880092162e-01
3.547471541489913283e-01
3.534806360057374808e-01
3.534195989867854326e-01
3.549455244605853599e-01
3.566240424817652133e-01
3.572344126712851398e-01
3.552354503006072695e-01
3.514664143803216678e-01
3.483230079042939353e-01
3.466750083925900783e-01
3.464156010620441650e-01
3.471022675252540268e-01
3.485671559801019059e-01
3.504593035676137891e-01
3.527939695425275635e-01
3.551133762627032842e-01
3.550065614795373525e-01
3.515274513992736605e-01
3.460798974578081499e-01
3.411053804132206380e-01
3.399914548173467166e-01
3.422956022827844946e-01
3.446607867671743208e-01
3.462630085146641279e-01
3.469954527420880952e-01
3.469649342326120989e-01
3.468123416852321172e-01
3.460341196935941555e-01
3.448438978240302433e-01
3.434705648976104087e-01
3.428601947080904822e-01
3.441572313608203815e-01
3.455000457777642198e-01
3.455458235419782143e-01
3.440046388134403443e-01
3.416699728385265700e-01
3.414410840174565420e-01
3.418225653859064961e-01
3.399914548173467166e-01
3.386028626361888283e-01
3.385570848719748338e-01
3.386638996551408209e-01
3.398846400341807295e-01
3.420361949522385259e-01
3.442640461439863131e-01
3.459120456556902257e-01
3.446455275124363227e-01
3.406323435163426949e-01
3.371684926908170010e-01
3.357188634907071201e-01
3.352916043580431715e-01
3.352000488296151270e-01
3.368785668507949804e-01
3.406781212805566894e-01
3.434247871333964142e-01
3.432569353312784344e-01
3.414258247627185439e-01
3.379467146824549073e-01
3.335215308084353292e-01
3.323160496841334188e-01
3.343913083285012799e-01
3.357188634907071201e-01
3.370006408886990212e-01
3.398541215247047331e-01
3.414258247627185439e-01
3.409680471205785990e-01
3.405560472426526486e-01
3.388927884762108489e-01
3.347575304422131803e-01
3.317209387493514905e-01
3.317361980040894887e-01
3.327738273262733637e-01
3.343760490737632818e-01
3.366954557939390580e-01
3.385723441267128320e-01
3.397778252510147423e-01
3.395641956846827125e-01
3.360545670949430241e-01
3.299203466902676518e-01
3.263649403363140244e-01
3.290658284249397547e-01
3.345133823664052097e-01
3.386181218909268265e-01
3.413647877437665512e-01
3.424481948301645318e-01
3.422498245185705001e-01
3.416241950743125755e-01
3.391369365520187640e-01
3.357341227454451182e-01
3.352000488296151270e-01
3.374126407666249161e-01
3.376262703329569459e-01
3.358714560380871017e-01
3.369243446150089749e-01
3.400067140720847148e-01
3.411664174321726306e-01
3.402813806573686817e-01
3.394573809015167809e-01
3.399151585436567258e-01
3.398541215247047331e-01
3.388622699667348526e-01
3.398083437604907386e-01
3.412579729606006196e-01
3.406476027710806931e-01
3.392132328257087548e-01
3.373668630024109216e-01
3.350016785180211509e-01
3.324533829767754023e-01
3.298745689260536018e-01
3.270973845637378807e-01
3.249763481551560806e-01
3.259529404583880186e-01
3.293252357554856680e-01
3.306833094271675599e-01
3.294015320291756588e-01
3.285470137638478172e-01
3.272804956205939142e-01
3.256477553636280553e-01
3.253273110141300384e-01
3.223822748496963375e-01
3.161870174260689170e-01
3.140354625080111206e-01
3.179570909756767594e-01
3.212530899990844180e-01
3.202917569505905337e-01
3.189642017883846381e-01
3.200170903653065113e-01
3.207037568285164841e-01
3.186895352031006712e-01
3.151341288491469883e-01
3.127536851100192195e-01
3.131199072237311753e-01
3.153782769249550144e-01
3.184453871272927006e-01
3.216498306222724257e-01
3.236335337382121868e-01
3.224433118686483302e-01
3.188879055146946473e-01
3.170415356913968696e-01
3.172704245124667866e-01
3.164922025208288248e-01
3.155919064912869332e-01
3.171636097293007994e-01
3.200628681295205058e-01
3.221991637928403596e-01
3.222144230475783577e-01
3.194982757042145738e-01
3.155766472365489350e-01
3.132267220068971625e-01
3.124485000152592007e-01
3.102969450972014043e-01
3.065431684316538008e-01
3.047425763725699621e-01
3.062532425916317802e-01
3.080385753959776207e-01
3.087862788781395862e-01
3.089999084444716160e-01
3.089236121707815697e-01
3.107089449751273547e-01
3.149815363017670067e-01
3.219855342265083853e-01
3.323770867030854115e-01
3.437757499923703719e-01
3.562273018585772610e-01
3.707693716238898429e-01
3.843195898312326553e-01
3.956572161015655675e-01
4.054078798791466709e-01
4.118472853785820620e-01
4.152500991851557632e-01
4.184240241706595476e-01
4.212164677877132668e-01
4.205908383434552866e-01
4.128849147007660481e-01
3.985869930112612702e-01
3.827936643574327280e-01
3.675038911099581806e-01
3.527329325235755708e-01
3.396710104678487552e-01
3.291116061891537492e-01
3.223975341044343357e-01
3.202307199316385411e-01
3.205206457716604507e-01
3.203833124790185227e-01
3.196508682515946109e-01
3.208410901211584676e-01
3.225806451612903136e-01
3.202764976958525356e-01
3.150730918301949957e-01
3.113956114383373275e-01
3.125400555436873007e-01
3.160649433881648762e-01
3.159276100955228928e-01
3.148136844996490824e-01
3.161564989165929207e-01
3.159276100955228928e-01
3.129215369121371992e-01
3.100680562761314873e-01
3.084353160191655729e-01
3.078402050843837001e-01
3.078707235938596964e-01
3.074892422254096869e-01
3.070162053285317438e-01
3.084047975096896321e-01
3.108615375225073918e-01
3.112582781456953995e-01
3.105716116824854267e-01
3.108920560319833881e-01
3.100680562761314873e-01
3.074892422254096869e-01
3.057954649494918353e-01
3.053987243263038831e-01
3.059022797326578780e-01
3.073976866969816979e-01
3.084047975096896321e-01
3.092440565202795311e-01
3.104190191351054451e-01
3.089388714255195678e-01
3.047883541367839566e-01
3.010345774712362976e-01
2.993102816858424498e-01
3.006988738670003380e-01
3.051698355052339107e-01
3.098849452192755094e-01
3.120212408825952521e-01
3.114871669667653165e-01
3.088473158970915788e-01
3.043000579851680154e-01
3.004852443006683083e-01
2.996917630542924593e-01
2.998748741111483818e-01
2.994323557237464351e-01
3.001953184606463987e-01
3.026825769829400992e-01
3.053071687978758941e-01
3.073671681875057016e-01
3.079927976317636262e-01
3.060853907895138559e-01
3.040406506546219911e-01
3.040101321451459948e-01
3.039033173619800077e-01
3.032624286629841404e-01
3.035676137577440481e-01
3.051850947599719088e-01
3.061159092989898522e-01
3.032166508987701459e-01
2.980437635425886023e-01
2.946867275002288400e-01
2.955107272560807963e-01
2.996917630542924593e-01
3.034455397198400628e-01
3.042695394756920191e-01
3.030793176061281069e-01
3.030182805871761142e-01
3.048341319009979511e-01
3.062532425916317802e-01
3.054139835810419368e-01
3.024384289071321841e-01
2.998901333658863799e-01
2.994170964690084369e-01
3.003631702627643785e-01
3.019501327555162429e-01
3.040253913998839930e-01
3.058565019684438835e-01
3.053376873073518905e-01
3.038575395977660132e-01
3.039796136356699985e-01
3.036591692861720926e-01
3.012024292733542774e-01
3.002563554795983913e-01
3.031556138798180977e-01
3.064210943937498155e-01
3.089846491897336178e-01
3.126163518173772360e-01
3.151036103396709920e-01
3.140507217627491188e-01
3.118381298257393297e-01
3.103885006256294488e-01
3.081453901791436634e-01
3.044373912778099434e-01
3.024384289071321841e-01
3.047425763725699621e-01
3.087099826044495954e-01
3.113803521835993293e-01
3.126468703268532323e-01
3.131199072237311753e-01
3.137455366679891000e-01
3.146458326975310471e-01
3.142490920743430394e-01
3.125247962889493025e-01
3.118991668446913224e-01
3.129062776573992011e-01
3.137913144322030945e-01
3.141727958006531041e-01
3.156071657460249313e-01
3.174230170598468237e-01
3.166447950682088619e-01
3.141575365459151059e-01
3.139439069795831316e-01
3.153935361796929571e-01
3.156987212744529758e-01
3.154087954344309552e-01
3.157750175481429666e-01
3.162480544450209097e-01
3.166447950682088619e-01
3.175145725882748127e-01
3.169499801629688251e-01
3.133640552995391459e-01
3.099765007477034984e-01
3.090609454634236086e-01
3.085421308023316156e-01
3.088473158970915788e-01
3.118533890804773279e-01
3.148899807733390177e-01
3.160496841334268781e-01
3.153172399060030218e-01
3.123416852320932691e-01
3.080538346507156189e-01
3.042847987304300172e-01
3.036286507766960963e-01
3.047120578630939658e-01
3.033539841914120738e-01
3.007904293954283270e-01
3.013397625659962609e-01
3.031098361156041032e-01
3.027893917661061418e-01
3.024231696523941859e-01
3.024994659260841767e-01
3.021637623218481616e-01
3.014007995849483090e-01
2.991119113742484736e-01
2.965178380687887305e-01
2.963499862666706952e-01
2.977843562120425780e-01
2.978759117404706225e-01
2.959837641529587393e-01
2.937864314706869484e-01
2.924588763084810528e-01
2.913296914578691887e-01
2.893917661061434221e-01
2.876674703207495742e-01
2.880336924344614746e-01
2.901242103335672784e-01
2.918332468642231281e-01
2.929166539506209976e-01
2.944120609149449286e-01
2.949613940855128624e-01
2.926877651295510807e-01
2.888119144260994364e-01
2.851344340342417683e-01
2.836085085604419520e-01
2.860042115543077190e-01
2.902615436262092619e-01
2.931150242622150293e-01
2.937101351969969576e-01
2.922299874874111358e-01
2.891781365398113923e-01
2.862941373943296841e-01
2.840510269478438987e-01
2.813501388592180574e-01
2.797784356212042467e-01
2.819605090487380950e-01
2.856227301858577095e-01
2.871028778954435312e-01
2.869350260933256069e-01
2.865993224890895918e-01
2.859126560258797300e-01
2.851191747795037701e-01
2.834406567583239167e-01
2.801141392254402618e-01
2.782830286568804268e-01
2.789239173558763496e-01
2.803582873012481769e-01
2.819452497940000968e-01
2.829218420972319792e-01
2.841578417310098859e-01
2.856990264595477003e-01
2.852259895626697572e-01
2.822656941434980582e-01
2.794427320169682871e-01
2.790459913937802794e-01
2.802667317728201879e-01
2.821893978698080119e-01
2.842646565141758730e-01
2.842646565141758730e-01
2.819147312845241005e-01
2.796411023285623187e-01
2.792138431958983147e-01
2.794885097811822816e-01
2.779168065431684709e-01
2.756584368419446873e-01
2.771233252967925109e-01
2.818231757560961115e-01
2.846003601184118326e-01
2.852412488174077554e-01
2.854853968932157260e-01
2.837305825983458818e-01
2.807397686696981864e-01
2.778557695242164782e-01
2.754905850398266520e-01
2.757347331156346226e-01
2.764366588335825381e-01
2.748954741050447237e-01
2.751701406903286906e-01
2.791528061769463775e-01
2.815332499160740909e-01
2.804193243202001695e-01
2.790612506485182776e-01
2.775505844294564595e-01
2.758720664082766061e-01
2.751853999450666888e-01
2.750938444166386443e-01
2.763908810693685436e-01
2.790307321390423367e-01
2.806634723960081956e-01
2.808313241981261199e-01
2.808618427076021162e-01
2.805413983581042103e-01
2.784661397137364047e-01
2.752922147282326759e-01
2.742088076418347509e-01
2.753532517471846686e-01
2.753990295113986631e-01
2.748649555955687274e-01
2.760856959746086359e-01
2.778405102694784801e-01
2.773369548631244297e-01
2.754753257850886539e-01
2.749259926145207200e-01
2.745597705008087086e-01
2.738731040375988468e-01
2.749870296334727127e-01
2.772148808252204999e-01
2.779778435621204080e-01
2.771691030610065054e-01
2.766655476546525660e-01
2.766960661641285624e-01
2.751548814355906925e-01
2.715842158268990669e-01
2.692342905972472389e-01
2.699056978057192135e-01
2.713705862605670371e-01
2.716147343363750633e-01
2.716147343363750633e-01
2.732322153386028685e-01
2.747581408124027402e-01
2.733390301217688001e-01
2.711569566942350629e-01
2.701345866267891305e-01
2.693868831446272205e-01
2.690054017761772664e-01
2.688222907193212330e-01
2.698751792962432172e-01
2.724845118564409585e-01
2.739799188207647784e-01
2.743461409344767898e-01
2.742240668965727490e-01
2.721640675069429971e-01
2.686239204077273124e-01
2.656483657338175597e-01
2.646717734305856773e-01
2.657551805169835468e-01
2.671437726981414351e-01
2.674642170476393965e-01
2.678304391613513524e-01
2.703482161931211603e-01
2.735679189428388280e-01
2.726065858943449438e-01
2.679219946897793414e-01
2.649922177800836387e-01
2.648548844874415997e-01
2.651753288369396167e-01
2.660908841212195064e-01
2.684865871150853289e-01
2.708517715994750996e-01
2.710959196752830147e-01
2.691274758140812517e-01
2.665334025086214531e-01
2.647633289590136108e-01
2.636951811273537394e-01
2.621234778893398731e-01
2.609637745292520128e-01
2.627338480788598551e-01
2.670522171697133906e-01
2.707296975615711143e-01
2.710806604205450165e-01
2.689901425214392683e-01
2.666096987823114439e-01
2.652211066011536111e-01
2.641682180242316824e-01
2.612384411145359242e-01
2.591174047059541241e-01
2.614673299356059522e-01
2.642292550431836751e-01
2.641071810052797453e-01
2.640003662221137026e-01
2.643971068453016549e-01
2.633594775231177798e-01
2.611163670766319944e-01
2.589190343943602035e-01
2.589648121585741425e-01
2.616657002471999283e-01
2.639698477126377063e-01
2.639393292031617100e-01
2.624286629840998364e-01
2.626422925504318107e-01
2.650227362895596350e-01
2.644734031189917012e-01
2.603839228492080271e-01
2.574083681752983299e-01
2.575914792321543079e-01
2.592089602343821686e-01
2.598498489333780914e-01
2.604602191228980734e-01
2.616504409924619301e-01
2.614368114261299558e-01
2.595904416028321227e-01
2.574541459395123244e-01
2.566606646931363644e-01
2.578661458174382748e-01
2.604297006134220216e-01
2.614825891903439503e-01
2.588732566301462090e-01
2.563097018341624067e-01
2.573015533921322873e-01
2.600634784997101212e-01
2.610858485671559981e-01
2.594836268196660800e-01
2.576830347605822968e-01
2.572099978637042983e-01
2.571337015900143630e-01
2.565233314004944365e-01
2.567064424573503589e-01
2.587511825922422237e-01
2.609179967650380183e-01
2.622302926725058603e-01
2.618945890682699007e-01
2.600329599902341249e-01
2.584002197332682105e-01
2.559129612109744545e-01
2.530747398297067408e-01
2.530899990844447389e-01
2.560045167394023879e-01
2.591784417249061723e-01
2.596972563859981098e-01
2.560808130130924898e-01
2.511673329874569149e-01
2.499465926084170064e-01
2.505874813074129293e-01
2.503433332316049587e-01
2.515640736106448672e-01
2.542039246803186048e-01
2.572252571184422965e-01
2.591784417249061723e-01
2.582323679311502862e-01
2.562486648152104141e-01
2.547837763603625905e-01
2.536088137455366764e-01
2.529984435560167499e-01
2.519760734885707620e-01
2.508774071474348943e-01
2.519455549790948212e-01
2.547837763603625905e-01
2.575762199774163097e-01
2.596514786217841153e-01
2.602008117923520492e-01
2.586138492996001848e-01
2.555162205877864467e-01
2.529984435560167499e-01
2.530594805749687426e-01
2.550431836909085037e-01
2.564928128910184402e-01
2.567979979857783479e-01
2.578814050721762730e-01
2.598803674428540877e-01
2.602313303018280455e-01
2.591021454512161259e-01
2.574083681752983299e-01
2.553483687856685225e-01
2.550431836909085037e-01
2.562944425794244085e-01
2.584917752616961995e-01
2.610705893124179999e-01
2.611468855861079907e-01
2.593157750175481557e-01
2.586138492996001848e-01
2.593005157628101576e-01
2.593462935270241521e-01
2.574541459395123244e-01
2.547532578508865941e-01
2.539139988402966397e-01
2.559282204657124526e-01
2.581713309121982380e-01
2.595141453291420763e-01
2.604754783776360716e-01
2.605365153965880642e-01
2.590105899227881370e-01
2.549821466719565111e-01
2.502059999389629752e-01
2.479171117282631676e-01
2.489852595599231222e-01
2.517319254127628469e-01
2.538529618213446470e-01
2.545701467940305607e-01
2.545701467940305607e-01
2.542344431897946566e-01
2.529984435560167499e-01
2.508468886379589535e-01
2.480086672566912120e-01
2.452314828943754077e-01
2.450941496017334520e-01
2.487868892483290906e-01
2.526627399517807349e-01
2.530747398297067408e-01
2.514114810632648855e-01
2.500991851557969881e-01
2.484511856440931865e-01
2.457808160649434248e-01
2.436292611468856006e-01
2.432020020142216521e-01
2.442243720816675290e-01
2.452467421491134059e-01
2.456740012817773822e-01
2.481460005493331955e-01
2.520828882717368047e-01
2.522507400738547845e-01
2.490005188146611204e-01
2.470015564439832501e-01
2.462691122165593660e-01
2.454298532059694393e-01
2.455824457533493932e-01
2.463606677449873550e-01
2.469100009155552888e-01
2.478102969450972082e-01
2.495193334757530579e-01
2.502059999389629752e-01
2.475814081240272635e-01
2.442243720816675290e-01
2.426984466078677127e-01
2.422864467299417346e-01
2.438581499679555453e-01
2.473067415387432411e-01
2.501144444105349862e-01
2.508926664021728925e-01
2.507400738547929664e-01
2.510299996948148760e-01
2.500534073915829936e-01
2.456282235175633877e-01
2.394329660939359672e-01
2.348704489272744056e-01
2.329630420850245798e-01
2.337107455671864620e-01
2.376323740348521285e-01
2.435377056184575562e-01
2.494277779473250689e-01
2.551194799645985500e-01
2.621997741630298639e-01
2.712332529679250537e-01
2.790154728843043386e-01
2.854091006195257907e-01
2.960753196813867838e-01
3.121127964110232966e-01
3.280892361217077613e-01
3.390301217688527768e-01
3.447828608050782506e-01
3.481398968474380129e-01
3.492996002075258732e-01
3.460951567125461481e-01
3.368022705771049896e-01
3.227332377086702953e-01
3.085421308023316156e-01
2.957548753318888224e-01
2.833185827204199314e-01
2.727591784417248699e-01
2.643513290810876604e-01
2.590563676870021315e-01
2.577593310342722321e-01
2.560960722678304324e-01
2.523270363475447753e-01
2.497329630420850044e-01
2.494277779473250689e-01
2.505264442884609366e-01
2.531510361033967316e-01
2.548753318887905794e-01
2.527085177159947293e-01
2.487563707388530942e-01
2.456740012817773822e-01
2.438581499679555453e-01
2.434919278542435617e-01
2.432172612689596503e-01
2.421033356730857011e-01
2.425763725699636719e-01
2.460097048860133695e-01
2.487563707388530942e-01
2.479171117282631676e-01
2.463606677449873550e-01
2.458418530838954175e-01
2.438886684774315416e-01
2.404095583971678496e-01
2.396465956602679692e-01
2.429425946836756278e-01
2.455824457533493932e-01
2.462385937070833697e-01
2.473372600482192374e-01
2.485580004272591459e-01
2.481917783135471622e-01
2.450331125827814593e-01
2.410351878414258298e-01
2.404858546708578959e-01
2.432172612689596503e-01
2.458418530838954175e-01
2.478560747093111749e-01
2.500381481368449954e-01
2.518234809411908359e-01
2.525406659138768051e-01
2.516708883938108543e-01
2.491531113620410742e-01
2.464827417828913125e-01
2.448500015259254536e-01
2.446211127048555090e-01
2.466353343302712664e-01
2.493667409283730763e-01
2.495651112399670246e-01
2.492446668904690354e-01
2.499313333536790083e-01
2.482833338419751512e-01
2.455824457533493932e-01
2.438581499679555453e-01
2.412335581530197781e-01
2.380443739127780789e-01
2.358165227210302917e-01
2.363200781273842310e-01
2.399975585192419547e-01
2.432325205236976484e-01
2.434308908352915968e-01
2.407605212561418351e-01
2.369151890621662426e-01
2.341227454451124401e-01
2.332224494155705208e-01
2.340922269356364438e-01
2.349009674367503742e-01
2.352366710409863615e-01
2.374034852137821838e-01
2.398449659718619176e-01
2.395397808771020098e-01
2.376781517990661230e-01
2.364574114200262700e-01
2.355876338999603470e-01
2.326425977355265906e-01
2.287057100131229537e-01
2.289193395794549557e-01
2.329020050660726149e-01
2.359080782494582806e-01
2.367778557695242037e-01
2.368541520432141667e-01
2.368999298074282445e-01
2.369457075716422390e-01
2.359080782494582806e-01
2.336191900387585008e-01
2.325968199713125961e-01
2.329477828302865816e-01
2.332377086703085189e-01
2.346568193609424591e-01
2.374034852137821838e-01
2.395397808771020098e-01
2.395397808771020098e-01
2.368388927884761685e-01
2.338328196050905028e-01
2.323221533860286014e-01
2.310861537522507780e-01
2.307046723838007962e-01
2.329630420850245798e-01
2.372661519211401449e-01
2.403027436140018902e-01
2.399365215002899065e-01
2.391277809991760317e-01
2.398449659718619176e-01
2.390057069612719909e-01
2.366863002410962147e-01
2.361522263252662790e-01
2.358623004852442862e-01
2.359843745231483270e-01
2.417065950498977489e-01
2.507095553453169701e-01
2.542497024445326548e-01
2.509231849116488888e-01
2.469710379345072537e-01
2.451094088564714502e-01
2.425458540604876756e-01
2.400891140476699437e-01
2.408215582750938277e-01
2.434461500900295949e-01
2.458571123386334156e-01
2.474745933408612208e-01
2.473220007934812392e-01
2.462538529618213679e-01
2.465590380565813033e-01
2.470931119724112390e-01
2.449568163090914963e-01
2.423474837488937272e-01
2.419812616351817436e-01
2.434766685995055635e-01
2.467268898586993386e-01
2.489242225409711295e-01
2.478560747093111749e-01
2.457045197912533785e-01
2.438428907132175472e-01
2.418286690878017897e-01
2.393414105655079782e-01
2.373882259590441857e-01
2.365489669484542590e-01
2.356639301736503378e-01
2.343211157567064717e-01
2.338785973693044973e-01
2.361217078157902827e-01
2.388988921781060315e-01
2.380138554033021103e-01
2.341532639545884364e-01
2.302774132511368477e-01
2.279122287667470215e-01
2.278359324930570307e-01
2.290261543626209428e-01
2.308877834406567464e-01
2.334208197271645524e-01
2.350230414746543595e-01
2.349314859462263705e-01
2.330240791039765724e-01
2.294991912594988859e-01
2.251197851496932745e-01
2.210608233893856800e-01
2.190466017639698115e-01
2.194280831324197933e-01
2.215948973052156157e-01
2.237464522232734121e-01
2.252418591875972598e-01
2.260811181981871865e-01
2.250587481307413096e-01
2.225867488631854962e-01
2.198400830103457715e-01
2.179174169133579475e-01
2.174901577806939990e-01
2.195501571703238342e-01
2.233802301095614284e-01
2.247230445265053222e-01
2.224341563158055424e-01
2.196264534440138250e-01
2.178563798944059826e-01
2.161168248542741366e-01
2.133396404919584155e-01
2.115237891781365787e-01
2.129734183782464318e-01
2.162388988921780941e-01
2.178868984038819789e-01
2.175511947996459916e-01
2.169255653553880669e-01
2.148045289468062391e-01
2.108066042054506095e-01
2.076937162388989011e-01
2.068239387188329781e-01
2.076479384746849066e-01
2.095248268074587361e-01
2.125919370097964500e-01
2.166814172795800686e-01
2.196874904629657899e-01
2.199926755577257809e-01
2.174901577806939990e-01
2.141331217383342644e-01
2.118900112918484790e-01
2.100131229590746773e-01
2.094485305337687453e-01
2.114017151402325378e-01
2.128208258308663947e-01
2.130497146519363949e-01
2.145603808709982407e-01
2.163762321848200776e-01
2.168340098269600225e-01
2.157200842310861566e-01
2.135837885677663306e-01
2.123630481887264221e-01
2.126377147740104445e-01
2.140110477004303069e-01
2.162999359111300868e-01
2.179021576586199771e-01
2.182226020081179663e-01
2.177800836207159918e-01
2.160252693258461476e-01
2.133396404919584155e-01
2.115237891781365787e-01
2.112338633381145858e-01
2.108218634601886077e-01
2.106082338938566056e-01
2.130802331614123912e-01
2.171849726859340080e-01
2.200689718314157717e-01
2.205114902188177461e-01
2.189703054902798485e-01
2.171849726859340080e-01
2.149723807489241911e-01
2.136143070772423269e-01
2.161626026184881311e-01
2.199163792840357345e-01
2.212591937009796283e-01
2.230292672505874430e-01
2.269356364635151113e-01
2.285225989562670035e-01
2.261574144718771773e-01
2.224036378063295460e-01
2.182683797723319330e-01
2.155064546647541546e-01
2.161320841090121347e-01
2.190008239997558170e-01
2.219458601641895734e-01
2.239295632801293623e-01
2.253486739707633024e-01
2.267983031708731556e-01
2.277748954741050380e-01
2.271034882656331466e-01
2.248146000549332835e-01
2.222357860042115940e-01
2.204351939451277553e-01
2.203283791619617127e-01
2.215186010315256249e-01
2.232276375621814746e-01
2.248908963286233298e-01
2.240363780632954049e-01
2.202978606524857164e-01
2.167577135532700316e-01
2.137516403698843659e-01
2.109744560075685615e-01
2.103183080538346683e-01
2.119052705465864772e-01
2.137363811151463677e-01
2.153233436078981766e-01
2.168645283364360743e-01
2.159947508163701513e-01
2.125614185003204537e-01
2.088381603442488188e-01
2.049165318765831800e-01
2.011627552110354655e-01
1.988433484908597171e-01
1.988738670003356857e-01
2.016663106173894326e-01
2.059083834345530606e-01
2.072817163609729230e-01
2.045045319986572019e-01
2.016510513626514345e-01
2.001098666341135923e-01
1.973937192907498639e-01
1.930906094546342433e-01
1.907406842249824708e-01
1.919309060945463830e-01
1.942197943052461628e-01
1.951200903347880822e-01
1.953032013916440324e-01
1.975615710928678159e-01
2.002471999267555758e-01
2.000030518509476329e-01
1.979430524613177977e-01
1.955473494674520307e-01
1.938230536820581829e-01
1.938383129367961810e-01
1.953032013916440324e-01
1.969054231391339227e-01
1.973479415265358694e-01
1.971800897244178341e-01
1.959898678548540052e-01
1.934263130588702306e-01
1.928464613788263005e-01
1.944334238715781094e-01
1.955320902127140326e-01
1.955473494674520307e-01
1.935178685872981919e-01
1.919614246040223793e-01
1.928769798883022968e-01
1.932737205114902490e-01
1.917783135471663458e-01
1.887112033448286319e-01
1.854457228308969419e-01
1.838129825739310830e-01
1.832483901486251510e-01
1.838587603381450497e-01
1.870326853236488340e-01
1.914883877071444085e-01
1.942960905789361536e-01
1.949064607684560524e-01
1.939298684652241700e-01
1.914578691976683567e-01
1.884365367595446927e-01
1.857966856898709274e-01
1.841944639423810370e-01
1.851863155003509454e-01
1.884060182500686964e-01
1.909848323007904136e-01
1.922513504440442889e-01
1.931363872188482100e-01
1.933042390209662453e-01
1.921750541703543258e-01
1.906338694418164836e-01
1.888180181279946745e-01
1.863307596057008630e-01
1.845301675466170244e-01
1.849116489150670062e-01
1.874141666920987326e-01
1.894894253364665659e-01
1.892147587511825713e-01
1.875209814752647752e-01
1.857661671803949310e-01
1.837672048097170885e-01
1.814325388348033141e-01
1.802270577105014038e-01
1.818445387127292923e-01
1.849879451887569970e-01
1.858424634540849218e-01
1.847743156224249672e-01
1.848200933866390450e-01
1.849574266792810007e-01
1.823480941190832316e-01
1.784264656514175651e-01
1.776940214239936811e-01
1.801660206915494111e-01
1.814630573442793104e-01
1.823938718832972261e-01
1.853083895382549862e-01
1.875057222205267771e-01
1.878719443342387052e-01
1.866054261909848577e-01
1.835993530075991365e-01
1.808679464094973821e-01
1.797845393230994571e-01
1.802423169652394019e-01
1.808679464094973821e-01
1.808679464094973821e-01
1.832331308938871528e-01
1.893063142796106157e-01
1.939909054841761349e-01
1.924954985198523150e-01
1.862086855677969055e-01
1.800286873989074554e-01
1.774803918576616790e-01
1.788689840388195396e-01
1.814172795800653160e-01
1.838282418286690811e-01
1.880550553910947109e-01
1.919309060945463830e-01
1.914883877071444085e-01
1.886654255806146374e-01
1.871089815973388248e-01
1.872310556352427824e-01
1.866512039551988522e-01
1.847895748771629654e-01
1.845759453108310189e-01
1.871700186162907897e-01
1.901913510544145369e-01
1.912900173955504046e-01
1.906796472060304781e-01
1.889248329111606339e-01
1.851710562456129472e-01
1.816461684011352606e-01
1.814935758537553068e-01
1.838129825739310830e-01
1.859340189825128831e-01
1.848811304055910099e-01
1.844691305276650595e-01
1.902676473281045277e-01
1.951048310800500840e-01
1.921597949156163276e-01
1.854762413403729382e-01
1.804559465315714317e-01
1.782128360850856186e-01
1.772667622913297325e-01
1.778313547166356645e-01
1.801049836725974462e-01
1.823786126285592279e-01
1.834009826960051048e-01
1.831568346201971620e-01
1.815088351084933049e-01
1.770378734702597046e-01
1.718039490951261683e-01
1.688436536759544970e-01
1.671040986358226510e-01
1.671498764000366455e-01
1.698355052339243776e-01
1.731315042573320639e-01
1.764275032807398058e-01
1.800897244178594481e-01
1.823175756096072353e-01
1.802575762199774001e-01
1.749931333353678675e-01
1.714377269814142124e-01
1.713003936887722289e-01
1.732230597857600252e-01
1.762443922238837724e-01
1.789452803125095304e-01
1.802575762199774001e-01
1.794488357188634697e-01
1.764732810449537725e-01
1.727958006530961321e-01
1.690420239875484454e-01
1.664784691915646708e-01
1.653645435956908050e-01
1.643269142735068467e-01
1.652119510483107678e-01
1.685384685811945060e-01
1.715598010193182532e-01
1.741386150700400259e-01
1.758629108554337905e-01
1.739707632679219906e-01
1.702017273476363612e-01
1.681722464674825224e-01
1.672566911832026049e-01
1.665700247199927153e-01
1.667378765221106673e-01
1.674855800042726328e-01
1.680654316843165630e-01
1.674855800042726328e-01
1.649220252082888583e-01
1.621448408459731094e-01
1.622211371196631002e-01
1.654560991241187939e-01
1.706595049897763339e-01
1.785332804345835522e-01
1.907864619891964653e-01
2.074953459273048695e-01
2.248451185644092798e-01
2.380291146580401085e-01
2.471083712271492927e-01
2.551957762382885408e-01
2.634662923062837669e-01
2.704550309762870919e-01
2.752311777092806833e-01
2.782219916379283786e-01
2.783135471663564231e-01
2.730033265175328960e-01
2.620929593798638768e-01
2.471846675008392835e-01
2.303384502700888126e-01
2.139042329172643198e-01
1.987823114719077244e-01
1.858577227088229200e-01
1.772820215460677307e-01
1.748252815332499155e-01
1.764427625354778040e-01
1.786553544724875930e-01
1.800592059083834517e-01
1.793725394451734789e-01
1.771446882534256917e-01
1.745506149479659208e-01
1.707510605182042951e-01
1.670125431073946620e-01
1.662648396252327243e-01
1.688131351664785007e-01
1.723075045014801354e-01
1.741233558153020278e-01
1.741996520889919908e-01
1.742454298532059853e-01
1.738639484847560035e-01
1.712088381603442677e-01
1.670888393810846528e-01
1.644337290566728893e-01
1.621448408459731094e-01
1.591692861720633567e-01
1.599475081637013185e-01
1.649067659535508601e-01
1.700186162907803555e-01
1.729483932004761138e-01
1.715903195287942218e-01
1.680501724295785648e-01
1.666920987578966729e-01
1.670888393810846528e-01
1.672109134189886381e-01
1.667683950315866637e-01
1.667989135410626600e-01
1.680501724295785648e-01
1.694387646107364254e-01
1.697592089602344145e-01
1.687978759117405025e-01
1.670583208716086565e-01
1.649220252082888583e-01
1.628009887997070304e-01
1.620380260628070668e-01
1.629383220923489861e-01
1.633045442060609698e-01
1.625720999786370857e-01
1.632740256965849734e-01
1.653492843409528068e-01
1.658986175115207407e-01
1.639759514145329444e-01
1.612292855616932197e-01
1.587572862941374063e-01
1.570940275276955234e-01
1.571855830561235123e-01
1.588183233130893990e-01
1.606646931363872044e-01
1.619617297891171037e-01
1.639759514145329444e-01
1.666463209936827061e-01
1.663258766441847170e-01
1.629688406018249824e-01
1.604815820795312542e-01
1.606036561174352117e-01
1.617023224585711627e-01
1.619617297891171037e-01
1.619617297891171037e-01
1.619617297891171037e-01
1.612140263069551382e-01
1.601001007110812724e-01
1.584521011993774153e-01
1.561174352244636410e-01
1.543015839106418041e-01
1.540269173253578094e-01
1.557054353465376628e-01
1.593981749931333014e-01
1.641438032166508965e-01
1.673024689474165994e-01
1.670430616168706583e-01
1.644642475661488856e-01
1.619617297891171037e-01
1.611682485427411438e-01
1.617786187322611258e-01
1.625568407238990876e-01
1.626636555070650469e-01
1.628925443281349916e-01
1.648152104251228711e-01
1.666615802484207043e-01
1.658375804925687480e-01
1.632587664418469753e-01
1.613513595995971772e-01
1.608935819574572323e-01
1.609088412121952028e-01
1.621906186101871039e-01
1.656392101809747441e-01
1.693472090823084364e-01
1.710562456129642861e-01
1.708578753013702822e-01
1.707052827539903006e-01
1.709952085940122379e-01
1.705221716971342949e-01
1.686147648548844968e-01
1.663563951536606855e-01
1.654560991241187939e-01
1.659443952757347351e-01
1.668599505600146526e-01
1.694082461012604290e-01
1.729331339457381156e-01
1.737876522110660404e-01
1.728568376720481248e-01
1.721701712088381520e-01
1.718192083498641665e-01
1.716208380382702181e-01
1.709952085940122379e-01
1.725821710867641301e-01
1.764732810449537725e-01
1.790215765861995767e-01
1.807153538621173450e-01
1.810815759758293286e-01
1.789757988219854989e-01
1.774956511123996772e-01
1.777397991882076755e-01
1.768242439039277580e-01
1.749473555711538730e-01
1.757103183080538367e-01
1.786248359630115967e-01
1.810205389568773637e-01
1.817835016937772996e-01
1.808374279000213858e-01
1.794793542283395216e-01
1.776177251503036347e-01
1.759544663838618350e-01
1.751609851374859028e-01
1.739402447584459943e-01
1.735740226447340107e-01
1.753898739585558475e-01
1.773888363292336900e-01
1.777703176976836719e-01
1.769615771965697415e-01
1.749320963164159026e-01
1.701406903286843963e-01
1.641285439619128983e-01
1.621448408459731094e-01
1.641438032166508965e-01
1.657918027283547813e-01
1.683706167790765540e-01
1.720480971709341944e-01
1.723532822656941854e-01
1.699118015076143684e-01
1.675008392590106310e-01
1.646778771324808321e-01
1.591387676625873882e-01
1.530808435316018956e-01
1.535996581926938609e-01
1.581163975951414835e-01
1.599475081637013185e-01
1.604968413342692524e-01
1.607104709006011989e-01
1.591387676625873882e-01
1.568803979613635768e-01
1.555681020538957071e-01
1.548661763359477361e-01
1.539201025421918501e-01
1.536606952116459091e-01
1.552476577043977179e-01
1.577501754814294999e-01
1.599627674184393167e-01
1.601306192205572687e-01
1.570635090182195548e-01
1.543473616748557986e-01
1.547898800622577731e-01
1.553086947233497106e-01
1.544083986938077913e-01
1.541795098727378466e-01
1.546067690054017951e-01
1.562089907528916299e-01
1.597033600878933202e-01
1.622058778649251021e-01
1.620227668080690686e-01
1.599322489089633204e-01
1.560411389507736502e-01
1.513565477462080477e-01
1.477706228827783963e-01
1.461989196447645856e-01
1.483657338175603801e-01
1.548661763359477361e-01
1.603442487868892985e-01
1.604663228247932560e-01
1.603442487868892985e-01
1.632892849513229716e-01
1.652577288125248178e-01
1.651966917935727697e-01
1.646473586230048358e-01
1.653340250862148086e-01
1.682943205053865077e-01
1.712698751792962326e-01
1.742759483626819816e-01
1.793420209356974826e-01
1.839655751213111201e-01
1.854915005951109364e-01
1.868953520310067951e-01
1.910916470839564563e-01
1.967986083559678523e-01
2.020935697500533812e-01
2.065797906430249797e-01
2.111575670644245950e-01
2.162694174016540904e-01
2.211523789178136412e-01
2.235175634022034119e-01
2.219153416547136048e-01
2.180394909512619328e-01
2.152165288247322172e-01
2.146671956541642834e-01
2.141788995025483422e-01
2.144993438520462481e-01
2.181310464796898940e-01
2.224188970610675442e-01
2.227546006653035315e-01
2.193060090945158358e-01
2.149571214941862207e-01
2.107913449507126114e-01
2.063356425672170369e-01
2.025818659016693224e-01
2.012085329752494600e-01
2.028260139774773485e-01
2.075869014557329140e-01
2.121799371318704719e-01
2.140568254646443014e-01
2.158879360332041086e-01
2.181615649891658903e-01
2.184972685934018777e-01
2.178868984038819789e-01
2.184972685934018777e-01
2.194586016418957897e-01
2.196111941892758268e-01
2.209540086062196929e-01
2.260963774529251846e-01
2.329172643208106130e-01
2.350535599841303558e-01
2.313303018280587209e-01
2.257301553392132010e-01
2.193212683492538062e-01
2.120731223487045125e-01
2.057863093966491030e-01
2.009643848994415172e-01
1.965697195348979354e-01
1.902218695638905333e-01
1.817224646748253070e-01
1.744285409100619355e-01
1.693777275917844327e-01
1.655476546525467552e-01
1.623737296670430541e-01
1.599169896542253222e-01
1.594897305215613736e-01
1.612903225806451846e-01
1.635181737723929718e-01
1.656392101809747441e-01
1.669209875789666175e-01
1.662800988799707225e-01
1.651051362651448084e-01
1.642963957640308503e-01
1.638538773766289036e-01
1.648152104251228711e-01
1.666920987578966729e-01
1.702169866023743594e-01
1.755882442701498791e-01
1.788384655293435432e-01
1.791589098788415324e-01
1.770073549607837082e-01
1.715292825098422569e-01
1.651966917935727697e-01
1.605273598437452487e-01
1.564683980834376265e-01
1.530961027863398938e-01
1.524246955778680024e-01
1.536606952116459091e-01
1.541032135990478558e-01
1.522263252662739708e-01
1.488998077333903158e-01
1.452681051057466699e-01
1.402325510422070820e-01
1.343882564775536193e-01
1.312601092562639127e-01
1.315805536057619018e-01
1.343272194586016544e-01
1.371959593493454199e-01
1.371044038209173754e-01
1.355174413281655665e-01
1.325876644184698083e-01
1.284829248939481916e-01
1.267128513443403492e-01
1.252327036347544997e-01
1.220892971587268089e-01
1.216315195165868501e-01
1.254310739463484758e-01
1.291085543382061163e-01
1.300698873867000838e-01
1.293984801782281091e-01
1.281777397991882006e-01
1.266670735801263548e-01
1.253395184179204869e-01
1.242866298409986137e-01
1.230048524430067125e-01
1.214636677144688287e-01
1.206549272133548845e-01
1.216467787713248483e-01
1.239661854915006245e-01
1.259956663716543801e-01
1.272774437696462813e-01
1.270790734580523329e-01
1.241187780388805784e-01
1.198004089480269596e-01
1.184575945310830797e-01
1.218146305734428003e-01
1.274910733359783110e-01
1.317789239173558502e-01
1.314737388225959425e-01
1.282845545823542432e-01
1.261940366832484117e-01
1.255531479842524334e-01
1.242561113315225479e-01
1.217078157902768271e-01
1.195410016174810186e-01
1.184575945310830797e-01
1.188238166447950633e-01
1.201818903164769275e-01
1.218298898281807985e-01
1.249732963042085032e-01
1.281472212897122043e-01
1.274605548265023147e-01
1.236762596514786178e-01
1.208380382702109040e-01
1.208685567796869004e-01
1.233100375377666480e-01
1.270638142033143347e-01
1.315042573320719388e-01
1.356089968565935278e-01
1.378673665578173113e-01
1.378826258125553095e-01
1.358989226966155206e-01
1.332132938627277885e-01
1.316415906247138945e-01
1.314432203131199461e-01
1.314127018036439498e-01
1.323129978331858692e-01
1.352427747428815441e-01
1.380046998504592948e-01
1.383556627094332803e-01
1.369975890377513883e-01
1.359904782250435096e-01
1.353190710165715349e-01
1.342814416943876599e-01
1.335795159764396889e-01
1.333353679006317460e-01
1.324503311258278249e-01
1.329996642963957587e-01
1.371807000946073662e-01
1.418500320444349705e-01
1.444288460951567432e-01
1.443372905667287542e-01
1.413312173833430052e-01
1.374553666798913609e-01
1.358378856776634724e-01
1.353190710165715349e-01
1.332590716269417830e-01
1.316721091341898908e-01
1.320841090121158412e-01
1.336100344859156852e-01
1.347697378460036011e-01
1.342204046754356672e-01
1.326487014374217732e-01
1.304361095004119842e-01
1.279183324686422596e-01
1.265755180516983935e-01
1.269722586748863458e-01
1.290475173192541236e-01
1.312753685110019108e-01
1.326944792016357677e-01
1.333658864101077424e-01
1.312601092562639127e-01
1.273537400433362721e-01
1.258125553147984299e-01
1.262703329569384025e-01
1.262398144474624062e-01
1.269417401654102939e-01
1.290475173192541236e-01
1.298715170751060521e-01
1.273232215338602757e-01
1.229895931882687282e-01
1.199377422406689986e-01
1.190069277016510829e-01
1.193731498153629972e-01
1.196783349101229882e-01
1.194647053437910417e-01
1.207922605059969234e-01
1.246528519547105140e-01
1.291238135929441144e-01
1.317941831720938484e-01
1.311532944730979533e-01
1.285897396771141510e-01
1.257820368053224336e-01
1.231116672261726858e-01
1.217078157902768271e-01
1.221045564134648070e-01
1.243476668599505924e-01
1.269417401654102939e-01
1.296273689992981093e-01
1.321298867763298357e-01
1.316873683889278890e-01
1.288644062623981734e-01
1.253242591631824887e-01
1.218146305734428003e-01
1.200292977690969737e-01
1.206701864680928826e-01
1.234931485946226676e-01
1.270027771843623421e-01
1.280251472518082467e-01
1.268501846369823050e-01
1.257362590411084668e-01
1.242713705862605461e-01
1.225012970366527731e-01
1.204107791375469416e-01
1.186864833521530938e-01
1.205175939207129149e-01
1.261940366832484117e-01
1.327555162205878159e-01
1.363109225745414987e-01
1.352580339976195423e-01
1.326181829279457769e-01
1.296884060182501019e-01
1.256294442579424797e-01
1.221961119418927821e-01
1.199224829859310004e-01
1.184118167668690991e-01
1.194952238532670380e-01
1.234473708304086731e-01
1.266670735801263548e-01
1.263466292306283656e-01
1.249580370494705051e-01
1.245460371715445408e-01
1.222724082155827591e-01
1.175267799920651779e-01
1.152226325266273999e-01
1.179998168889431209e-01
1.229132969145786680e-01
1.282845545823542432e-01
1.324808496353038212e-01
1.317178868984038853e-01
1.278878139591662633e-01
1.241950743125705553e-01
1.201818903164769275e-01
1.171910763878292600e-01
1.165654469435712798e-01
1.175267799920651779e-01
1.192663350321970239e-01
1.206701864680928826e-01
1.219061861018707754e-01
1.237525559251685947e-01
1.247444074831385585e-01
1.235084078493606657e-01
1.208990752891628967e-01
1.184118167668690991e-01
1.171910763878292600e-01
1.176946317941831993e-01
1.194952238532670380e-01
1.219367046113467717e-01
1.255684072389904316e-01
1.292916653950621220e-01
1.283455916013062359e-01
1.234931485946226676e-01
1.206549272133548845e-01
1.203039643543809684e-01
1.194189275795770472e-01
1.190527054658650774e-01
1.210821863460188469e-01
1.244087038789025712e-01
1.267128513443403492e-01
1.260109256263923783e-01
1.228370006408886911e-01
1.198919644764550041e-01
1.184423352763450815e-01
1.178319650868251689e-01
1.171147801141391998e-01
1.165501876888332816e-01
1.181829279457991544e-01
1.219061861018707754e-01
1.234931485946226676e-01
1.207770012512589253e-01
1.174199652088992046e-01
1.170842616046632173e-01
1.169316690572832496e-01
1.148258919034394337e-01
1.151310769981994248e-01
1.193884090701010647e-01
1.234473708304086731e-01
1.250648518326364922e-01
1.253852961821344814e-01
1.254005554368724795e-01
1.245155186620685445e-01
1.227912228766746966e-01
1.204260383922849398e-01
1.172826319162572350e-01
1.150395214697714497e-01
1.154667806024354121e-01
1.185033722952971436e-01
1.223029267250587554e-01
1.249275185399945226e-01
1.254615924558244444e-01
1.246070741904965334e-01
1.234473708304086731e-01
1.207312234870449308e-01
1.177861873226111744e-01
1.167790765099032957e-01
1.159245582445753570e-01
1.169774468214972440e-01
1.214331492049928324e-01
1.257820368053224336e-01
1.261635181737724154e-01
1.235236671040986639e-01
1.212347788933988840e-01
1.188695944090090439e-01
1.162755211035493424e-01
1.152684102908413805e-01
1.160771507919553247e-01
1.186712240974150956e-01
1.230506302072207070e-01
1.266518143253883566e-01
1.278267769402142151e-01
1.273689992980742702e-01
1.259804071169163819e-01
1.245765556810205371e-01
1.234931485946226676e-01
1.228217413861506929e-01
1.227912228766746966e-01
1.213110751670888610e-01
1.186101870784631168e-01
1.178930021057771477e-01
1.175878170110171567e-01
1.177098910489211975e-01
1.196172978911709955e-01
1.209295937986388791e-01
1.210821863460188469e-01
1.194647053437910417e-01
1.167485580004272994e-01
1.167638172551652975e-01
1.200750755333109543e-01
1.229590746787927319e-01
1.226538895840327409e-01
1.207159642323068632e-01
1.188238166447950633e-01
1.153752250740073537e-01
1.112552262947477527e-01
1.102481154820398740e-01
1.130100405896175969e-01
1.181981872005371526e-01
1.232947782830286498e-01
1.259956663716543801e-01
1.258278145695364281e-01
1.219824823755607662e-01
1.150242622150334515e-01
1.080355235450300710e-01
1.047242652668844004e-01
1.052583391827143361e-01
1.072115237891781425e-01
1.098055970946379134e-01
1.133152256843775879e-01
1.160771507919553247e-01
1.145817438276314909e-01
1.109500411999878311e-01
1.099581896420178673e-01
1.100497451704459118e-01
1.087374492629780420e-01
1.080660420545060674e-01
1.096682638019959438e-01
1.122470778527176472e-01
1.139255958738975144e-01
1.145970030823694891e-01
1.151310769981994248e-01
1.147495956297494429e-01
1.133457441938535842e-01
1.115909298989837400e-01
1.092410046693319814e-01
1.077150791955320819e-01
1.088900418103579959e-01
1.125522629474776382e-01
1.160313730277413302e-01
1.166875209814752373e-01
1.161992248298592961e-01
1.157261879329813392e-01
1.136967070528275697e-01
1.107974486526078078e-01
1.086001159703360031e-01
1.076693014313180874e-01
1.076998199407940837e-01
1.081270790734580461e-01
1.109042634357737811e-01
1.164891506698812890e-01
1.202429273354289202e-01
1.191137424848170562e-01
1.147953733939634374e-01
1.105227820673238687e-01
1.086916714987639782e-01
1.089968565935239692e-01
1.078676717429121190e-01
1.059907834101382340e-01
1.080507827997680692e-01
1.111178930021057970e-01
1.114993743705557649e-01
1.113773003326517935e-01
1.104464857936338223e-01
1.082644123661000851e-01
1.062959685048982250e-01
1.058992278817102589e-01
1.079897457808160766e-01
1.103396710104678491e-01
1.117435224463637078e-01
1.127353740043336716e-01
1.122165593432416508e-01
1.106448561052278401e-01
1.094698934904019261e-01
1.066774498733481930e-01
1.022217474898526046e-01
9.985656300546284780e-02
1.009857478560747118e-01
1.037324137089144366e-01
1.051057466353343128e-01
1.050294503616443359e-01
1.043275246436964343e-01
1.020538956877346526e-01
9.912411877803889437e-02
9.691152684102909143e-02
9.488204596087525255e-02
9.315775017548147408e-02
9.331034272286142794e-02
9.598071230201118964e-02
9.961241492965483557e-02
1.027100436414685597e-01
1.041138950773644184e-01
1.026032288583025864e-01
9.894100772118294418e-02
9.533982360301521131e-02
9.326456495864744733e-02
9.306619464705342959e-02
9.376812036500138670e-02
9.413434247871337035e-02
9.576708273567917373e-02
9.860530411694695685e-02
9.843745231482892155e-02
9.639271217993715390e-02
9.579760124515522557e-02
9.453108310190133645e-02
9.170812097537155150e-02
9.018219550157172137e-02
9.060945463423568380e-02
9.196752830591756189e-02
9.411908322397537219e-02
9.637745292519915574e-02
9.759819330423906425e-02
9.707937864314705734e-02
9.466841639454330604e-02
9.065523239844967829e-02
8.819849238563186311e-02
9.039582506790366789e-02
9.398174993133333321e-02
9.524826807458722233e-02
9.674367503891113940e-02
9.920041505172887131e-02
9.924619281594286579e-02
9.718619342631309999e-02
9.460737937559131339e-02
9.082308420056763032e-02
8.836634418774989841e-02
9.082308420056763032e-02
9.447004608294935768e-02
9.566026795251320047e-02
9.636219367046115758e-02
9.805597094637902300e-02
1.002990813928648084e-01
1.007110812707907727e-01
9.750663777581101976e-02
9.289834284493546368e-02
9.013641773735772689e-02
9.019745475630971954e-02
9.212012085329751576e-02
9.448530533768735584e-02
9.656056398205510594e-02
9.747611926633502344e-02
9.656056398205510594e-02
9.469893490401930236e-02
9.208960234382153331e-02
8.861049226355782737e-02
8.621478926969208811e-02
8.658101138340405789e-02
8.902249214148380552e-02
9.092989898373367297e-02
9.276100955229349410e-02
9.540086062196725947e-02
9.591967528305919699e-02
9.411908322397537219e-02
9.230323191015354922e-02
9.027375102999969647e-02
8.888515884884183593e-02
9.067049165318767645e-02
9.381389812921538118e-02
9.514145329142124907e-02
9.599597155674918780e-02
9.813226722006899994e-02
1.013214514603106992e-01
1.023438215277565760e-01
9.819330423902097871e-02
9.341715750602740120e-02
9.123508407849359458e-02
8.905301065095978796e-02
8.618427076021609179e-02
8.474990081484423676e-02
8.769493697927792375e-02
9.399700918607133138e-02
9.831537827692495013e-02
9.819330423902097871e-02
9.578234199041717190e-02
9.254737998596147819e-02
8.961760307626578936e-02
8.888515884884183593e-02
9.025849177526169831e-02
9.295937986388745633e-02
9.561449018829920599e-02
9.665211951048309491e-02
9.710989715262303978e-02
9.665211951048309491e-02
9.315775017548147408e-02
8.873256630146186819e-02
8.616901150547809363e-02
8.421582689901423169e-02
8.314767906735436032e-02
8.549760429700611897e-02
8.996856593523970547e-02
9.303567613757743326e-02
9.369182409131140976e-02
9.309671315652941204e-02
9.184545426801359047e-02
8.934293649098179468e-02
8.719138157292398439e-02
8.790856654560993966e-02
8.960234382152779120e-02
9.057893612475968748e-02
9.236426892910552799e-02
9.437849055452129932e-02
9.459212012085332910e-02
9.268471327860351716e-02
9.027375102999969647e-02
8.854945524460584860e-02
8.766441846980192742e-02
8.847315897091587167e-02
8.957182531205180875e-02
8.915982543412583061e-02
8.902249214148380552e-02
8.998382518997770363e-02
9.001434369945376934e-02
8.868678853724788758e-02
8.488723410748620635e-02
7.927182836390268827e-02
7.753227332377084224e-02
7.997375408185065926e-02
8.282723471785637115e-02
8.569597460860013671e-02
8.836634418774989841e-02
9.088412121951962297e-02
9.331034272286142794e-02
9.242530594805750677e-02
8.699301126133002215e-02
8.221686452833644465e-02
8.105716116824852879e-02
8.017212439344460762e-02
7.991271706289866661e-02
8.488723410748620635e-02
9.163182470168157456e-02
9.457686086611533094e-02
9.440900906399729564e-02
9.276100955229349410e-02
8.964812158574178569e-02
8.568071535386213855e-02
8.342234565263835500e-02
8.398693807794428701e-02
8.603167821283612404e-02
8.845789971617787351e-02
9.096041749320966929e-02
9.184545426801359047e-02
9.073152867213965522e-02
8.925138096255381959e-02
8.679464094973600441e-02
8.359019745475632091e-02
8.314767906735436032e-02
8.520767845698419551e-02
8.610797448652611485e-02
8.754234443189795600e-02
9.138767662587363172e-02
9.341715750602740120e-02
9.121982482375561030e-02
8.722190008239996684e-02
8.415478988006223904e-02
8.291879024628441563e-02
8.192693868831445181e-02
8.040101321451462169e-02
8.032471694082464475e-02
8.256782738731043014e-02
8.563493758964815794e-02
8.845789971617787351e-02
9.042634357737966422e-02
9.012115848261974260e-02
8.746604815820797907e-02
8.511612292855622042e-02
8.488723410748620635e-02
8.583330790124210630e-02
8.729819635608995765e-02
8.989226966154972853e-02
9.274575029755550981e-02
9.445478682821129013e-02
9.404278695028539525e-02
9.248634296700949942e-02
9.250160222174749758e-02
9.337137974181342059e-02
9.314249092074347591e-02
9.373760185552539037e-02
9.614856410412914167e-02
9.678945280312512001e-02
9.562974944303720415e-02
9.646900845362713084e-02
9.799493392742696096e-02
9.773552659688103383e-02
9.643848994415114839e-02
9.437849055452129932e-02
9.176915799432353027e-02
9.050263985106971054e-02
9.079256569109163399e-02
9.146397289956360865e-02
9.236426892910552799e-02
9.306619464705342959e-02
9.184545426801359047e-02
8.793908505508593598e-02
8.497878963591418144e-02
8.359019745475632091e-02
8.079775383770258779e-02
7.957701345866269316e-02
8.076723532822660534e-02
8.194219794305244997e-02
8.528397473067417245e-02
8.883938108462784145e-02
8.815271462141788250e-02
8.485671559801021002e-02
8.108767967772452512e-02
7.745597705008086531e-02
7.521286660359507992e-02
7.539597766045105787e-02
7.805108798486286303e-02
8.081301309244058595e-02
8.220160527359844649e-02
8.424634540849029740e-02
8.629108554338206505e-02
8.499404889065217961e-02
8.059938352610857004e-02
7.664723654896692107e-02
7.408368175298318814e-02
7.205420087282937702e-02
7.350383007293925797e-02
7.855464339121680239e-02
8.301034577471239073e-02
8.508560441908015470e-02
8.417004913480023720e-02
8.119449446089056777e-02
7.776116214484085631e-02
7.463301492355114974e-02
7.330545976134526798e-02
7.449568163090915240e-02
7.858516190069279872e-02
8.511612292855622042e-02
8.838160344248789657e-02
8.572649311807613304e-02
8.244575334940645872e-02
7.963805047761467193e-02
7.431257057405316058e-02
6.826990569780572171e-02
6.624042481765191059e-02
6.732383190404982176e-02
6.825464644306772355e-02
7.089449751274148892e-02
7.470931119724112668e-02
7.693716238898892779e-02
7.866145817438277565e-02
8.003479110080263803e-02
8.095034638508255553e-02
8.377330851161227110e-02
9.016693624683372321e-02
1.001922666096987657e-01
1.135898922696615271e-01
1.278878139591662633e-01
1.412854396191290385e-01
1.556901760917996647e-01
1.690878017517624399e-01
1.775566881313516421e-01
1.846675008392590078e-01
1.908474990081484302e-01
1.899472029786065386e-01
1.829737235633411563e-01
1.750236518448439471e-01
1.664784691915646708e-01
1.553239539780877088e-01
1.412244026001770458e-01
1.260414441358683746e-01
1.117740409558397041e-01
1.000091555528428156e-01
9.129612109744558723e-02
8.601641895809812588e-02
8.484145634327221186e-02
8.635212256233404382e-02
8.827478865932192331e-02
8.984649189733573404e-02
8.940397350993377346e-02
8.473464156010623860e-02
7.811212500381484181e-02
7.444990386669515792e-02
7.480086672566914341e-02
7.679982909634695820e-02
7.860042115543079688e-02
7.979064302499470906e-02
8.105716116824852879e-02
8.296456801049839624e-02
8.461256752220219779e-02
8.395641956846829068e-02
7.945493942075872174e-02
7.356486709189123674e-02
7.025360881374553834e-02
7.028412732322153467e-02
7.283242286446732494e-02
7.599108859523302784e-02
7.834101382488478649e-02
8.056886501663257372e-02
8.178960539567248222e-02
8.052308725241859311e-02
7.782219916379284896e-02
7.541123691518905603e-02
7.350383007293925797e-02
7.097079378643146585e-02
6.822412793359172722e-02
6.762901699880977113e-02
6.994842371898558897e-02
7.351908932767725613e-02
7.495345927304911116e-02
7.235938596758936803e-02
6.956694235053560715e-02
6.915494247260964289e-02
6.950590533158362838e-02
7.084871974852749443e-02
7.277138584551533229e-02
7.382427442243720550e-02
7.454145939512313301e-02
7.541123691518905603e-02
7.576219977416304152e-02
7.501449629200111768e-02
7.290871913815730188e-02
7.049775688955350894e-02
6.901760917996767331e-02
6.753746147038179604e-02
6.486709189123204822e-02
6.279183324686424261e-02
6.436353648487809498e-02
6.903286843470567147e-02
7.280190435499132862e-02
7.446516312143315608e-02
7.487716299935912034e-02
7.364116336558122755e-02
7.147434919278544685e-02
6.906338694418166779e-02
6.718649861140781054e-02
6.752220221564379787e-02
7.008575701162754468e-02
7.306131168553729738e-02
7.577745902890103968e-02
7.721182897427292247e-02
7.583849604785301846e-02
7.332071901608326614e-02
7.087923825800349076e-02
6.791894283883177785e-02
6.634723960081792549e-02
6.776635029145178235e-02
7.036042359691155323e-02
7.223731192968536885e-02
7.429731131931516241e-02
7.757805108798490612e-02
7.972960600604264703e-02
7.795953245643480467e-02
7.339701528977324307e-02
7.013153477584156692e-02
7.028412732322153467e-02
7.222205267494737069e-02
7.441938535721916159e-02
7.625049592577899660e-02
7.727286599322491512e-02
7.812738425855283997e-02
7.771538438062687570e-02
7.455671864986117281e-02
7.156590472121342195e-02
7.090975676747948708e-02
7.252723776970732006e-02
7.570116275521106275e-02
7.872249519333475443e-02
8.108767967772452512e-02
8.229316080202643546e-02
8.107242042298652696e-02
7.823419904171881323e-02
7.629627368999297721e-02
7.673879207739497943e-02
7.795953245643480467e-02
7.802056947538686671e-02
7.834101382488478649e-02
8.020264290292060394e-02
8.314767906735436032e-02
8.552812280648211529e-02
8.464308603167819411e-02
8.207953123569448894e-02
8.172856837672050345e-02
8.354441969054232642e-02
8.445997497482224392e-02
8.400219733268228517e-02
8.461256752220219779e-02
8.711508529923399358e-02
9.063997314371168013e-02
9.295937986388745633e-02
9.231849116489153351e-02
9.056367687002170319e-02
8.925138096255381959e-02
8.772545548875392007e-02
8.717612231818598623e-02
8.854945524460584860e-02
9.021271401104771770e-02
9.183019501327559231e-02
9.404278695028539525e-02
9.460737937559131339e-02
9.311197241126741020e-02
9.376812036500138670e-02
9.530930509353921498e-02
9.274575029755550981e-02
8.856471449934384677e-02
8.801538132877591292e-02
9.057893612475968748e-02
9.274575029755550981e-02
9.355449079866937079e-02
9.263893551438945329e-02
9.012115848261974260e-02
8.752708517715995784e-02
8.456678975798821718e-02
8.198797570726643058e-02
8.157597582934053571e-02
8.239997558519240872e-02
8.351390118106633009e-02
8.522293771172219368e-02
8.613849299600209730e-02
8.490249336222420451e-02
8.319345683156834093e-02
8.148442030091249122e-02
8.035523545030062720e-02
8.064516129032256453e-02
7.979064302499470906e-02
7.889034699545278972e-02
8.021790215765860210e-02
8.186590166936245916e-02
8.346812341685234948e-02
8.526871547593617429e-02
8.438367870113225311e-02
7.969908749656665070e-02
7.516708883938108543e-02
7.391582995086522223e-02
7.383953367717520366e-02
7.329020050660726981e-02
7.437360759300518098e-02
7.715079195532094369e-02
7.890560625019078789e-02
8.015686513870660945e-02
8.180486465041048039e-02
8.101138340403453431e-02
7.838679158909876710e-02
7.646412549211097087e-02
7.371745963927123224e-02
7.139805291909542828e-02
7.211523789178139743e-02
7.417523728141119099e-02
7.580797753837703601e-02
7.670827356791898310e-02
7.512131107516709094e-02
6.987212744529557040e-02
6.526383251442001432e-02
6.538590655232398574e-02
6.715598010193182810e-02
6.781212805566576296e-02
7.046723838007752649e-02
7.530442213202308277e-02
7.789849543748282590e-02
7.766960661641288122e-02
7.637256996368299578e-02
7.394634846034121856e-02
6.964323862422558409e-02
6.396679586169012888e-02
6.103701895199440536e-02
6.346324045533618952e-02
6.755272072511979420e-02
7.011627552110358264e-02
7.164220099490339888e-02
7.330545976134526798e-02
7.487716299935912034e-02
7.461775566881315158e-02
7.191686758018740744e-02
6.811731315042575396e-02
6.480605487228005557e-02
6.437879573961609314e-02
6.793420209356977602e-02
7.226783043916135130e-02
7.335123752555926246e-02
7.147434919278544685e-02
6.985686819055757224e-02
6.901760917996767331e-02
6.697286904507583627e-02
6.402783288064210765e-02
6.370738853114416012e-02
6.746116519669181910e-02
7.209997863704339927e-02
7.431257057405316058e-02
7.457197790459917097e-02
7.431257057405316058e-02
7.345805230872526348e-02
7.136753440961943196e-02
6.846827600939971170e-02
6.622516556291391243e-02
6.437879573961609314e-02
6.295968504898220852e-02
6.401257362590412336e-02
6.773583178197578603e-02
7.209997863704339927e-02
7.535019989623707726e-02
7.560960722678304602e-02
7.229834894863734762e-02
6.840723899044771905e-02
6.573686941129797123e-02
6.363109225745414155e-02
6.294442579424421036e-02
6.270027771843623976e-02
6.250190740684224977e-02
6.616412854396193366e-02
7.147434919278544685e-02
7.254249702444531822e-02
7.132175664540545135e-02
7.074190496536149342e-02
6.936857203894161716e-02
6.730857264931182360e-02
6.646931363872189691e-02
6.724753563035983095e-02
6.918546098208563921e-02
7.281716360972932678e-02
7.565538499099704051e-02
7.364116336558122755e-02
6.959746086001160348e-02
6.689657277138585934e-02
6.457716605121008313e-02
6.286812952055423342e-02
6.244087038789026406e-02
6.357005523850216278e-02
6.643879512924590058e-02
6.970427564317760449e-02
7.094027527695546953e-02
6.926175725577564390e-02
6.709494308297983545e-02
6.556901760917997757e-02
6.405835139011810397e-02
6.334116641743217646e-02
6.422620319223609764e-02
6.703390606402785667e-02
7.016205328531756324e-02
7.278664510025333045e-02
7.535019989623707726e-02
7.585375530259101662e-02
7.411420026245921222e-02
7.153538621173742562e-02
6.808679464094972988e-02
6.558427686391797573e-02
6.691183202612384362e-02
7.121494186223947809e-02
7.548753318887907460e-02
7.911923581652273441e-02
8.107242042298652696e-02
8.000427259132665558e-02
7.899716177861876298e-02
8.024842066713465394e-02
7.783745841853084713e-02
7.081820123905151199e-02
6.852931302835169047e-02
7.045197912533952833e-02
7.185583056123538703e-02
7.353434858241525429e-02
7.310708944975129187e-02
7.101657155064548810e-02
6.975005340739159898e-02
6.758323923459579052e-02
6.479079561754205741e-02
6.305124057741021137e-02
6.276131473738826017e-02
6.529435102389601064e-02
6.942960905789363757e-02
7.141331217383342644e-02
7.113864558854945952e-02
6.991790520950959265e-02
6.717123935666982626e-02
6.332590716269417830e-02
6.019775994140447173e-02
5.827509384441664081e-02
5.674916837061681069e-02
5.673390911587877783e-02
6.010620441297649663e-02
6.469924008911405455e-02
6.682027649769586852e-02
6.601153599658193816e-02
6.411938840907012438e-02
6.172368541520433655e-02
5.928220465712456116e-02
5.905331583605458179e-02
6.147953733939636595e-02
6.402783288064210765e-02
6.505020294808804004e-02
6.613361003448593733e-02
6.677449873348188791e-02
6.456190679647208497e-02
6.172368541520433655e-02
6.039613025299846172e-02
5.844294564653463447e-02
5.679494613483079823e-02
5.842768639179663631e-02
6.016724143192848234e-02
5.810724204229868184e-02
5.380413220618305431e-02
5.238502151554919745e-02
5.523850215155494403e-02
5.778679769280069267e-02
5.796990874965667756e-02
5.774101992858670512e-02
5.818353831598865877e-02
5.935850093081454504e-02
6.199835200048830347e-02
6.456190679647208497e-02
6.488235114597004638e-02
6.338694418164617095e-02
6.070131534775841803e-02
5.719168675801877127e-02
5.294961394085512946e-02
4.860072634052554907e-02
4.637287514877775491e-02
4.774620807519761728e-02
5.166783654286326993e-02
5.673390911587877783e-02
6.230353709524826672e-02
6.747642445142981726e-02
7.277138584551533229e-02
7.992797631763666477e-02
8.909878841517378245e-02
1.011535996581927332e-01
1.154667806024354121e-01
1.276741843928342612e-01
1.372112186040834181e-01
1.462904751731925468e-01
1.541032135990478558e-01
1.586504715109714192e-01
1.589556566057313547e-01
1.563005462813195912e-01
1.514633625293740904e-01
1.423688467055269080e-01
1.288949247718741697e-01
1.137882625812555448e-01
1.002380443739127602e-01
8.972441785943176262e-02
8.120975371562856593e-02
7.412945951719721038e-02
6.865138706625568965e-02
6.399731437116612520e-02
6.077761162144843660e-02
5.940427869502853259e-02
5.969420453505053237e-02
6.176946317941832409e-02
6.299020355845823260e-02
6.262398144474624895e-02
6.389049958800015194e-02
6.555375835444197941e-02
6.378368480483413705e-02
6.054872280037845722e-02
5.903805658131659057e-02
5.951109347819454054e-02
6.077761162144843660e-02
6.155583361308634288e-02
6.213568529313030775e-02
6.326487014374219953e-02
6.486709189123204822e-02
6.517227698599199759e-02
6.254768517105627201e-02
5.900753807184059424e-02
5.671864986114077967e-02
5.555894650105289850e-02
5.539109469893490484e-02
5.578783532212287094e-02
5.873287148655659262e-02
6.524857325968201616e-02
6.836146122623373844e-02
6.526383251442001432e-02
6.067079683828242864e-02
5.790887173070469185e-02
5.847346415601062386e-02
5.903805658131659057e-02
5.682546464430678762e-02
5.554368724631490034e-02
5.719168675801877127e-02
5.990783410138251358e-02
6.323435163426620320e-02
6.489761040070803066e-02
6.201361125522630163e-02
5.821405682546465510e-02
5.713064973906675087e-02
5.681020538956879640e-02
5.652027954954679662e-02
5.746635334330273820e-02
5.879390850550861303e-02
5.977050080874050930e-02
6.086916714987641169e-02
6.054872280037845722e-02
5.784783471175267838e-02
5.621509445478684031e-02
5.624561296426282969e-02
5.523850215155494403e-02
5.464339121677298100e-02
5.670339060640278844e-02
5.998413037507249052e-02
6.314279610583820035e-02
6.567583239234597858e-02
6.537064729758598758e-02
6.215094454786829897e-02
5.961790826136051380e-02
5.816827906125066755e-02
5.513168736838892914e-02
5.240028077028719561e-02
5.247657704397717254e-02
5.406353953672902307e-02
5.705435346537676700e-02
6.001464888454848684e-02
5.949583422345654238e-02
5.699331644642478129e-02
5.642872402111882152e-02
5.616931669057284582e-02
5.444502090517899795e-02
5.533005767998291913e-02
5.871761223181860140e-02
6.019775994140447173e-02
6.038087099826046356e-02
6.131168553727837228e-02
6.196783349101231408e-02
6.181524094363231858e-02
6.175420392468033287e-02
6.118961149937436617e-02
5.880916776024661119e-02
5.653553880428482947e-02
5.694753868221075904e-02
6.134220404675436167e-02
6.813257240516375213e-02
7.182531205175939071e-02
7.097079378643146585e-02
6.845301675466171354e-02
6.585894344920194265e-02
6.399731437116612520e-02
6.245612964262826222e-02
6.125064851832638657e-02
6.282235175634023894e-02
6.732383190404982176e-02
7.185583056123538703e-02
7.362590411084322939e-02
7.208471938230535947e-02
6.933805352946563472e-02
6.746116519669181910e-02
6.770531327249978970e-02
6.904812768944366963e-02
6.909390545365765024e-02
6.976531266212959714e-02
7.377849665822322489e-02
7.844782860805082914e-02
8.067567979979861637e-02
8.099612414929653614e-02
7.933286538285475031e-02
7.661671803949093862e-02
7.562486648152104418e-02
7.574694051942504336e-02
7.522812585833310584e-02
7.553331095309306908e-02
7.699819940794090656e-02
7.870723593859677014e-02
8.075197607348860718e-02
8.171330912198250529e-02
8.062990203558456637e-02
7.794427320169682039e-02
7.464827417828914791e-02
7.206946012756737519e-02
7.078768272957551566e-02
7.136753440961943196e-02
7.377849665822322489e-02
7.667775505844298678e-02
7.808160649433884548e-02
7.664723654896692107e-02
7.380901516769922122e-02
7.121494186223947809e-02
6.813257240516375213e-02
6.527909176915801248e-02
6.488235114597004638e-02
6.625568407238990876e-02
6.724753563035983095e-02
6.682027649769586852e-02
6.657612842188789792e-02
6.787316507461778337e-02
6.791894283883177785e-02
6.517227698599199759e-02
6.144901882992036962e-02
5.854976042970064243e-02
5.737479781487472147e-02
5.754264961699271513e-02
5.934324167607654688e-02
6.146427808465836778e-02
6.204412976470229102e-02
6.302072206793422893e-02
6.338694418164617095e-02
6.016724143192848234e-02
5.523850215155494403e-02
5.124057741019930751e-02
5.073702200384536121e-02
5.442976165044099979e-02
5.862605670339061936e-02
6.157109286782434104e-02
6.294442579424421036e-02
6.108279671620839291e-02
5.610827967162086705e-02
5.084383678701133447e-02
4.756309701834163239e-02
4.634235663930175858e-02
4.811243018890960094e-02
5.119479964598531996e-02
5.313272499771111435e-02
5.694753868221075904e-02
6.059450056459244477e-02
5.874813074129462548e-02
5.488753929258095854e-02
5.282753990295115804e-02
5.073702200384536121e-02
4.907376323740349905e-02
4.983672597430341411e-02
5.105746635334331568e-02
5.021820734275338899e-02
4.794457838679160727e-02
4.756309701834163239e-02
4.855494857631155459e-02
4.680013428144171733e-02
4.441969054231392072e-02
4.345835749382002261e-02
4.164250617999819964e-02
4.103213599047824539e-02
4.361095004119998342e-02
4.704428235724968793e-02
5.026398510696737654e-02
5.191198461867124747e-02
5.163731803338728055e-02
5.005035554063539532e-02
4.626606036561174001e-02
4.380932035279397341e-02
4.501480147709587681e-02
4.416028321176795196e-02
4.119998779259623906e-02
4.258857997375409959e-02
4.695272682882167814e-02
4.976042970061343024e-02
4.980620746482741779e-02
4.765465254676964219e-02
4.489272743919187764e-02
4.268013550218207469e-02
4.156620990630818108e-02
4.142887661366621149e-02
4.239020966216011654e-02
4.531998657185584006e-02
4.928739280373548026e-02
5.116428113650928894e-02
4.988250373851743635e-02
4.754783776360363423e-02
4.531998657185584006e-02
4.330576494644002711e-02
4.216132084109013717e-02
4.268013550218207469e-02
4.510635700552385885e-02
4.716635639515365935e-02
4.701376384777369855e-02
4.669331949827570938e-02
4.641865291299174245e-02
4.472487563707388397e-02
4.214606158635213901e-02
4.008606219672233850e-02
3.988769188512835545e-02
4.147465437788020598e-02
4.374828333384198770e-02
4.715109714041566119e-02
5.137791070284127015e-02
5.407879879146705593e-02
5.384990997039704186e-02
5.105746635334331568e-02
4.739524521622363873e-02
4.396191290017396891e-02
4.110843226416822233e-02
3.933835871456038691e-02
3.897213660084844489e-02
4.055909909360028848e-02
4.557939390240180882e-02
5.151524399548327443e-02
5.226294747764519133e-02
4.812768944364759216e-02
4.412976470229196257e-02
4.252754295480211388e-02
4.225287636951811227e-02
4.121524704733423028e-02
3.862117374187445940e-02
3.842280343028047634e-02
4.254280220954011205e-02
4.580828272347178820e-02
4.686117130039370304e-02
4.841761528366955725e-02
4.943998535111547576e-02
4.786828211310162340e-02
4.409924619281596625e-02
4.101687673574024723e-02
4.239020966216011654e-02
4.583880123294777759e-02
4.646443067720573000e-02
4.612872707296977737e-02
4.687643055513169427e-02
4.734946745200965118e-02
4.635761589403975674e-02
4.402294991912595462e-02
4.162724692526020148e-02
4.144413586840420965e-02
4.422132023071993767e-02
4.762413403729365280e-02
4.922635578478349455e-02
4.889065218054750722e-02
4.838709677419356092e-02
4.750205999938964668e-02
4.432813501388594563e-02
4.020813623462630992e-02
3.912472914822840570e-02
4.152043214209419353e-02
4.445020905178991705e-02
4.713583788567766303e-02
4.994354075746942206e-02
5.203405865657521195e-02
5.319376201666313475e-02
5.349894711142309800e-02
5.127109591967529689e-02
4.754783776360363423e-02
4.657124546037173796e-02
4.857020783104955275e-02
5.107272560808131384e-02
5.351420636616108922e-02
5.705435346537676700e-02
6.085390789513841353e-02
6.131168553727837228e-02
5.816827906125066755e-02
5.465865047151097916e-02
5.200354014709922257e-02
5.006561479537339349e-02
4.931791131321146965e-02
4.980620746482741779e-02
5.116428113650928894e-02
5.322428052613913108e-02
5.507065034943695037e-02
5.540635395367289606e-02
5.438398388622701224e-02
5.148472548600728504e-02
4.657124546037173796e-02
4.272591326639606918e-02
4.304635761589405835e-02
4.611346781823177921e-02
4.846339304788354480e-02
4.979094821008942656e-02
4.957731864375744535e-02
4.577776421399579188e-02
4.153569139683218475e-02
3.988769188512835545e-02
3.762932218390456496e-02
3.501998962370679591e-02
3.642384105960265461e-02
4.040650654622029297e-02
4.400769066438795646e-02
4.797509689626759666e-02
5.052339243751337999e-02
4.985198522904144697e-02
4.750205999938964668e-02
4.451124607074193745e-02
4.136783959471419109e-02
3.917050691244242794e-02
3.889584032715842632e-02
4.048280281991027685e-02
4.412976470229196257e-02
4.878383739738153396e-02
5.079805902279734692e-02
4.873805963316754641e-02
4.525894955290385435e-02
4.223761711478012104e-02
3.973509933774835995e-02
3.868221076082644511e-02
3.854487746818447552e-02
3.798028504287851576e-02
3.831598864711450309e-02
4.033021027253031604e-02
4.231391338847013267e-02
4.249702444532608980e-02
4.022339548936430809e-02
3.680532242805262949e-02
3.483687856685081102e-02
3.624073000274666972e-02
3.920102542191841732e-02
4.072695089571828214e-02
4.268013550218207469e-02
4.487746818445387947e-02
4.414502395702995380e-02
4.170354319895017842e-02
3.869747001556444327e-02
3.473006378368483776e-02
3.160191656239512425e-02
2.977080599383526496e-02
2.960295419171730946e-02
3.433332316049686472e-02
4.332102420117802527e-02
5.313272499771111435e-02
6.230353709524826672e-02
6.950590533158362838e-02
7.541123691518905603e-02
8.427686391796627985e-02
9.662160100100709859e-02
1.095919675283059669e-01
1.245612964262825390e-01
1.401257362590410949e-01
1.514481032746360922e-01
1.578875087740714833e-01
1.594439527573473792e-01
1.560411389507736502e-01
1.481673635059663763e-01
1.350596636860255939e-01
1.163365581225013351e-01
9.520249031037324172e-02
7.831049531540879016e-02
6.715598010193182810e-02
5.990783410138251358e-02
5.691702017273476966e-02
5.618457594531084398e-02
5.459761345255899345e-02
5.191198461867124747e-02
4.875331888790554458e-02
4.528946806237984374e-02
4.377880184331797708e-02
4.518265327921387048e-02
4.660176396984772734e-02
4.695272682882167814e-02
4.795983764152959850e-02
4.860072634052554907e-02
4.589983825189979799e-02
4.275643177587209326e-02
4.193243202002015779e-02
4.167302468947418903e-02
4.251228370006412266e-02
4.501480147709587681e-02
4.832605975524158215e-02
5.092013306070131834e-02
5.127109591967529689e-02
5.018768883327739266e-02
4.821924497207557420e-02
4.533524582659383823e-02
4.165776543473619087e-02
3.630176702169869013e-02
3.289895321512497500e-02
3.532517471846675916e-02
4.013183996093632605e-02
4.405346842860194401e-02
4.823450422681356542e-02
5.090487380596332018e-02
4.870754112369152233e-02
4.519791253395186864e-02
4.330576494644002711e-02
4.033021027253031604e-02
3.729361857966857763e-02
3.750724814600055884e-02
3.886532181768243693e-02
3.784295175023654617e-02
3.723258156071659886e-02
4.005554368724631442e-02
4.254280220954011205e-02
4.254280220954011205e-02
4.148991363261819720e-02
3.949095126194038241e-02
3.717154454176461315e-02
3.724784081545459008e-02
4.033021027253031604e-02
4.214606158635213901e-02
4.173406170842617474e-02
4.284798730430006836e-02
4.486220892971588131e-02
4.393139439069797259e-02
4.008606219672233850e-02
3.654591509750666073e-02
3.540147099215677079e-02
3.799554429761651392e-02
4.141361735892822027e-02
4.098635822626425784e-02
4.043702505569628930e-02
4.367198706015200382e-02
4.591509750663779615e-02
4.441969054231392072e-02
4.152043214209419353e-02
3.839228492080448002e-02
3.672902615436265256e-02
3.827021088290047390e-02
4.170354319895017842e-02
4.486220892971588131e-02
4.676961577196572101e-02
4.698324533829770222e-02
4.614398632770777553e-02
4.489272743919187764e-02
4.234443189794612900e-02
3.906369212927641998e-02
3.843806268501846757e-02
4.048280281991027685e-02
4.213080233161414778e-02
4.300057985168007080e-02
4.411450544755396441e-02
4.647968993194372817e-02
4.814294869838559032e-02
4.632709738456376042e-02
4.351939451277200832e-02
4.153569139683218475e-02
4.011658070619833483e-02
4.139835810419022211e-02
4.440443128757592950e-02
4.725791192358166914e-02
5.104220709860532446e-02
5.403302102725303369e-02
5.339213232825708311e-02
5.040131839960937388e-02
4.817346720786157971e-02
4.832605975524158215e-02
5.119479964598531996e-02
5.400250251777703736e-02
5.522324289681694587e-02
5.786309396649070430e-02
6.074709311197240558e-02
6.039613025299846172e-02
5.859553819391462998e-02
5.719168675801877127e-02
5.531479842524492097e-02
5.311746574297312312e-02
5.226294747764519133e-02
5.470442823572496671e-02
5.882442701498460935e-02
6.285287026581623526e-02
6.761375774407177297e-02
7.107760856959748075e-02
7.159642323068941827e-02
7.065034943693351832e-02
6.892605365153965657e-02
6.743064668721582278e-02
6.730857264931182360e-02
6.750694296090579971e-02
6.831568346201974395e-02
6.935331278420363288e-02
6.952116458632161267e-02
6.985686819055757224e-02
6.999420148319956958e-02
7.042146061586353201e-02
6.993316446424759081e-02
6.610309152500994101e-02
6.317331461531418280e-02
6.465346232490006007e-02
6.759849848933378869e-02
6.952116458632161267e-02
7.209997863704339927e-02
7.397686696981721488e-02
7.106234931485948259e-02
6.634723960081792549e-02
6.370738853114416012e-02
6.176946317941832409e-02
6.013672292245248602e-02
5.969420453505053237e-02
6.094546342356639557e-02
6.259346293527026650e-02
6.176946317941832409e-02
6.068605609302041987e-02
6.164738914151435961e-02
6.085390789513841353e-02
5.726798303170874821e-02
5.250709555345316887e-02
4.887539292580950906e-02
5.030976287118139878e-02
5.406353953672902307e-02
5.536057618945890851e-02
5.635242774742883765e-02
5.798516800439467572e-02
5.774101992858670512e-02
5.484176152836697099e-02
5.085909604174933263e-02
4.766991180150764035e-02
4.589983825189979799e-02
4.550309762871183189e-02
4.602191228980376941e-02
4.715109714041566119e-02
4.940946684163948638e-02
5.095065157017730773e-02
4.876857814264353580e-02
4.521317178868986680e-02
4.344309823908202445e-02
4.216132084109013717e-02
4.048280281991027685e-02
3.950621051667838057e-02
3.961302529984438853e-02
4.115421002838220987e-02
4.420606097598193951e-02
4.593035676137579432e-02
4.516739402447584456e-02
4.342783898434403322e-02
3.987243263039035729e-02
3.575243385113072159e-02
3.448591570787682553e-02
3.582873012482073322e-02
3.790398876918853188e-02
3.962828455458238669e-02
4.179509872737816045e-02
4.524369029816585619e-02
4.689168980986969243e-02
4.434339426862394379e-02
3.932309945982238875e-02
3.476058229316082715e-02
3.193762016663107689e-02
3.213599047822505994e-02
3.506576738792078346e-02
3.679006317331463827e-02
3.788872951445054066e-02
3.970458082827236362e-02
3.926206244087040304e-02
3.746147038178657129e-02
3.709524826807459458e-02
3.666798913541063215e-02
3.375347148045289986e-02
3.131199072237312447e-02
3.335673085726493375e-02
3.709524826807459458e-02
3.820917386394849513e-02
3.787347025971254250e-02
3.906369212927641998e-02
4.092532120731223744e-02
4.113895077364421865e-02
4.011658070619833483e-02
3.752250740073855700e-02
3.328043458357494988e-02
3.122043519394514938e-02
3.231910153508105177e-02
3.421124912259285861e-02
3.584398937955873138e-02
3.541673024689476895e-02
3.344828638569294355e-02
3.289895321512497500e-02
3.361613818781093721e-02
3.415021210364087290e-02
3.503524887844479407e-02
3.665272988067263399e-02
3.877376628925445490e-02
4.084902493362225356e-02
4.118472853785824089e-02
3.930784020508439058e-02
3.556932279427472976e-02
3.068636127811517900e-02
2.783288064210947058e-02
2.972502822962127741e-02
3.404339732047486494e-02
3.720206305124060253e-02
4.010132145146033666e-02
4.205450605792412921e-02
4.029969176305431972e-02
3.645435956907865094e-02
3.378398998992889618e-02
3.340250862147895600e-02
3.341776787621695416e-02
3.277687917722100358e-02
3.239539780877102870e-02
3.331095309305094621e-02
3.616443372905668585e-02
3.921628467665641549e-02
4.034546952726830726e-02
3.941465498825039854e-02
3.709524826807459458e-02
3.444013794366283798e-02
3.216650898770105627e-02
3.108310190130314857e-02
3.265480513931700440e-02
3.584398937955873138e-02
3.852961821344648430e-02
4.010132145146033666e-02
4.037598803674430359e-02
4.046754356517227869e-02
4.063539536729027235e-02
3.964354380932037791e-02
3.604235969115267973e-02
3.195287942136907505e-02
3.256324961088902237e-02
3.558458204901272792e-02
3.694265572069463377e-02
3.796502578814051759e-02
3.793450727866452821e-02
3.579821161534470914e-02
3.355510116885891680e-02
3.169347209082309935e-02
3.013702810754724515e-02
3.006073183385726474e-02
3.120517593920715468e-02
3.366191595202492476e-02
3.738517410809655966e-02
3.952146977141637180e-02
3.921628467665641549e-02
3.776665547654653454e-02
3.503524887844479407e-02
3.178502761925108139e-02
2.995391705069125679e-02
3.051850947599722003e-02
3.210547196874907055e-02
3.320413830988497295e-02
3.398236030152287923e-02
3.445539719840083615e-02
3.683584093752862582e-02
4.176458021790216413e-02
4.539628284554585863e-02
4.593035676137579432e-02
4.429761650440995624e-02
4.269539475692007285e-02
4.274117252113409510e-02
4.364146855067601444e-02
4.550309762871183189e-02
4.815820795312358849e-02
4.933317056794946781e-02
4.782250434888760116e-02
4.509109775078586069e-02
4.313791314432203344e-02
4.297006134220407447e-02
4.278695028534808265e-02
4.222235786004212288e-02
4.431287575914794746e-02
4.686117130039370304e-02
4.536576433606982761e-02
4.150517288735619537e-02
3.938413647877437446e-02
3.897213660084844489e-02
3.688161870174261336e-02
3.349406414990693109e-02
3.274636066774501419e-02
3.486739707632680041e-02
3.637806329538866706e-02
3.685110019226662398e-02
3.778191473128452577e-02
3.854487746818447552e-02
3.810235908078252187e-02
3.645435956907865094e-02
3.514206366161076733e-02
3.395184179204688985e-02
3.190710165715508057e-02
3.120517593920715468e-02
3.353984191412091864e-02
3.746147038178657129e-02
4.005554368724631442e-02
4.010132145146033666e-02
3.935361796929838507e-02
3.811761833552051310e-02
3.436384166997285411e-02
2.883999145481735971e-02
2.558977019562364355e-02
2.685628833887753961e-02
2.966399121066929170e-02
3.132724997711112264e-02
3.343302713095494538e-02
3.645435956907865094e-02
3.808709982604452371e-02
3.636280404065067584e-02
3.205969420453508301e-02
2.864162114322337319e-02
2.780236213263344303e-02
2.745139927365949570e-02
2.699362163151954042e-02
2.877895443586537400e-02
3.172399060029909568e-02
3.254799035615103114e-02
3.209021271401107239e-02
3.097628711813717531e-02
2.865688039796136788e-02
2.714621417889950122e-02
2.731406598101749489e-02
2.816858424634541974e-02
3.025910214545121310e-02
3.320413830988497295e-02
3.431806390575886656e-02
3.244117557298502319e-02
2.867213965269936604e-02
2.473525193029575339e-02
2.121036408581807031e-02
1.895199438459428329e-02
1.890621662038026105e-02
2.175969725638600416e-02
2.887050996429335256e-02
3.819391460921049697e-02
4.535050508133182945e-02
5.102694784386732629e-02
5.867183446760460691e-02
6.845301675466171354e-02
7.919553209021271134e-02
9.060945463423568380e-02
1.009399700918607173e-01
1.096682638019959438e-01
1.214178899502548342e-01
1.356547746208075222e-01
1.452375865962706736e-01
1.479842524491103983e-01
1.452986236152226662e-01
1.384166997283852452e-01
1.269264809106722958e-01
1.097140415662099383e-01
9.135715811639763539e-02
7.606738486892300477e-02
6.482131412701805373e-02
5.829035309915463203e-02
5.351420636616108922e-02
4.846339304788354480e-02
4.402294991912595462e-02
4.010132145146033666e-02
3.662221137119664460e-02
3.489791558580278980e-02
3.546250801110875650e-02
3.581347087008270730e-02
3.508102664265878162e-02
3.636280404065067584e-02
4.019287697988831176e-02
4.245124668111210225e-02
3.921628467665641549e-02
3.350932340464492926e-02
3.022858363597522371e-02
2.798547318948943138e-02
2.714621417889950122e-02
2.967925046540728987e-02
3.375347148045289986e-02
3.752250740073855700e-02
3.950621051667838057e-02
3.891109958189642448e-02
3.642384105960265461e-02
3.375347148045289986e-02
3.093050935392315307e-02
2.793969542527544384e-02
2.705465865047152266e-02
2.853480636005739993e-02
3.027436140018924596e-02
3.086947233497116735e-02
3.065584276863918614e-02
2.951139866328929620e-02
2.787865840632345812e-02
2.784813989684746527e-02
2.932828760643330784e-02
3.131199072237312447e-02
3.248695333719901074e-02
3.202917569505905199e-02
3.245643482772301441e-02
3.341776787621695416e-02
3.338724936674095783e-02
3.376873073519089802e-02
3.231910153508105177e-02
2.833643604846341341e-02
2.604754783776363353e-02
2.603228858302560414e-02
2.626117740409561821e-02
2.650532547990359228e-02
2.879421369060336869e-02
3.280739768669699991e-02
3.488265633106479857e-02
3.489791558580278980e-02
3.453169347209084777e-02
3.181554612872707077e-02
2.629169591357160760e-02
2.252265999328595392e-02
2.308725241859188246e-02
2.624591814935758535e-02
3.128147221289713509e-02
3.610339671010470014e-02
3.778191473128452577e-02
3.683584093752862582e-02
3.437910092471085227e-02
3.169347209082309935e-02
2.981658375804925598e-02
2.792443617053744567e-02
2.647480697042756473e-02
2.735984374523148244e-02
3.009125034333325760e-02
3.262428662984100808e-02
3.338724936674095783e-02
3.248695333719901074e-02
3.190710165715508057e-02
3.138828699606314304e-02
2.954191717276528906e-02
2.766502883999147691e-02
2.822962126529740545e-02
3.120517593920715468e-02
3.454695272682884594e-02
3.837702566606648880e-02
4.133732108523820170e-02
4.019287697988831176e-02
3.717154454176461315e-02
3.534043397320475038e-02
3.447065645313882737e-02
3.433332316049686472e-02
3.489791558580278980e-02
3.640858180486466339e-02
3.906369212927641998e-02
4.286324655903806652e-02
4.551835688344982311e-02
4.428235724967192338e-02
4.182561723685414984e-02
4.094058046205022866e-02
3.869747001556444327e-02
3.436384166997285411e-02
3.381450849940488557e-02
3.964354380932037791e-02
4.709006012146367548e-02
5.172887356181525564e-02
5.346842860194710167e-02
5.374309518723106860e-02
5.236976226081119928e-02
4.925687429425949088e-02
4.522843104342786497e-02
4.110843226416822233e-02
4.020813623462630992e-02
4.379406109805597525e-02
4.857020783104955275e-02
5.328531754509110985e-02
5.641346476638082336e-02
5.594042786950287338e-02
5.475020599993899589e-02
5.429242835779900245e-02
5.217139194921721623e-02
4.937894833216345536e-02
4.980620746482741779e-02
5.262916959135716805e-02
5.473494674520096304e-02
5.685598315378278395e-02
5.928220465712456116e-02
6.109805597094639107e-02
6.138798181096834922e-02
5.796990874965667756e-02
5.256813257240518927e-02
4.882961516159552151e-02
4.695272682882167814e-02
4.686117130039370304e-02
4.892117069002350355e-02
5.249183629871517071e-02
5.542161320841092892e-02
5.450605792413098366e-02
5.038605914487138265e-02
4.718161564989169221e-02
4.480117191076389560e-02
4.211554307687614962e-02
4.150517288735619537e-02
4.313791314432203344e-02
4.670857875301370060e-02
5.049287392803735591e-02
4.924161503952149271e-02
4.356517227698599587e-02
4.007080294198434034e-02
3.886532181768243693e-02
3.520310068056278774e-02
3.155613879818110201e-02
3.225806451612903136e-02
3.491317484054078796e-02
3.704947050386060703e-02
3.962828455458238669e-02
4.150517288735619537e-02
3.994872890408034116e-02
3.604235969115267973e-02
3.276161992248301236e-02
3.077791680654318879e-02
3.010650959807125229e-02
3.044221320230720493e-02
3.170873134556109751e-02
3.411969359416488351e-02
3.596606341746270280e-02
3.622547074800867156e-02
3.532517471846675916e-02
3.418073061311686922e-02
3.273110141300701603e-02
2.998443556016724965e-02
2.720725119785152163e-02
2.758873256630146181e-02
3.108310190130314857e-02
3.526413769951477345e-02
3.860591448713646123e-02
3.839228492080448002e-02
3.474532303842282899e-02
3.155613879818110201e-02
2.905362102114934092e-02
2.591021454512163272e-02
2.505569627979370786e-02
2.777184362315745017e-02
2.970976897488328272e-02
3.042695394756920677e-02
3.338724936674095783e-02
3.714102603228858213e-02
3.688161870174261336e-02
3.267006439405499563e-02
2.798547318948943138e-02
2.381969664601583936e-02
2.188177129429001028e-02
2.281258583330791553e-02
2.439954832605976606e-02
2.650532547990359228e-02
2.970976897488328272e-02
3.166295358134710997e-02
3.056428724021120757e-02
2.850428785058140707e-02
2.606280709250163169e-02
2.246162297433393351e-02
2.111880855739006052e-02
2.394177068391981078e-02
2.771080660420546446e-02
2.966399121066929170e-02
2.983184301278728537e-02
3.067110202337718083e-02
3.248695333719901074e-02
3.224280526139103320e-02
2.804651020844145179e-02
2.256843775749994147e-02
2.038636432996613485e-02
2.160710470900604335e-02
2.420117801446577954e-02
2.731406598101749489e-02
2.995391705069125679e-02
3.103732413708916102e-02
3.045747245704519962e-02
2.891628772850734011e-02
2.621539963988159250e-02
2.185125278481401742e-02
1.748710592974640418e-02
1.678518021179847483e-02
2.212591937009798435e-02
2.946562089907530865e-02
3.129673146763513325e-02
2.943510238959931580e-02
2.963347270119330232e-02
2.969450972014528456e-02
2.674947355571156635e-02
2.339243751335187693e-02
2.270577105014194227e-02
2.404858546708581873e-02
2.575762199774163722e-02
2.829065828424942586e-02
3.120517593920715468e-02
3.277687917722100358e-02
3.267006439405499563e-02
3.114413892025513428e-02
2.847376934110537952e-02
2.609332560197762454e-02
2.543717764824368274e-02
2.513199255348368827e-02
2.342295602282786979e-02
2.296517838068791451e-02
2.583391827143165231e-02
2.786339915158546343e-02
2.650532547990359228e-02
2.363658558915985100e-02
2.113406781212805521e-02
1.959288308359023040e-02
1.828058717612234679e-02
1.886043885616627350e-02
2.299569689016390736e-02
2.815332499160742505e-02
3.187658314767909118e-02
3.251747184667503482e-02
2.948088015381330335e-02
2.508621478926970072e-02
2.194280831324199252e-02
2.143925290688804969e-02
2.204962309640800047e-02
2.150028992584003540e-02
2.087466048158208645e-02
2.215643787957397373e-02
2.430799279763178750e-02
2.533036286507767479e-02
2.536088137455366764e-02
2.397228919339580364e-02
2.044740134891812056e-02
1.715140232551045502e-02
1.699880977813045604e-02
1.927243873409223776e-02
2.151554918057803009e-02
2.299569689016390736e-02
2.499465926084172215e-02
2.700888088625753511e-02
2.645954771568956657e-02
2.311777092806787531e-02
1.942503128147223673e-02
1.727347636341442297e-02
1.596118045594653936e-02
1.583910641804257141e-02
1.933347575304422347e-02
2.475051118503374808e-02
2.681051057466354859e-02
2.616962187566760495e-02
2.627643665883361290e-02
2.511673329874569358e-02
2.154606769005402295e-02
1.797540208136235232e-02
1.631214331492052139e-02
1.832636494033633434e-02
2.305673390911588960e-02
2.636799218726159147e-02
2.716147343363753061e-02
2.720725119785152163e-02
2.627643665883361290e-02
2.272103030487994044e-02
1.954710531937620469e-02
1.971495712149419835e-02
2.072206793420212217e-02
2.079836420789210258e-02
2.096621601001009624e-02
2.243110446485794066e-02
2.511673329874569358e-02
2.760399182103949120e-02
2.832117679372541871e-02
2.684102908413954144e-02
2.482680745872372849e-02
2.229377117221597454e-02
1.882992034669028064e-02
1.727347636341442297e-02
1.863155003509629412e-02
2.177495651112399885e-02
2.444532609027375361e-02
2.320932645649588857e-02
1.959288308359023040e-02
1.965392010254221264e-02
2.392651142918181262e-02
2.548295541245767029e-02
2.174443800164800947e-02
1.860103152562030127e-02
2.050843836787014096e-02
2.517777031769771051e-02
2.815332499160742505e-02
2.833643604846341341e-02
2.786339915158546343e-02
2.764976958525347875e-02
2.591021454512163272e-02
2.180547502059999171e-02
1.899777214880827431e-02
2.088991973632008115e-02
2.417065950498978669e-02
2.520828882717370337e-02
2.542191839350568458e-02
2.549821466719566845e-02
2.504043702505570970e-02
2.360606707968385815e-02
2.087466048158208645e-02
1.870784630878630922e-02
1.895199438459428329e-02
2.110354930265206236e-02
2.385021515549183221e-02
2.615436262092960679e-02
2.818384350108341790e-02
3.007599108859525944e-02
2.952665791802729089e-02
2.552873317667165784e-02
2.095095675527210155e-02
1.817377239295633884e-02
1.759392071291241214e-02
1.838740195928832005e-02
1.901303140354626900e-02
2.200384533219397823e-02
2.909939878536332847e-02
3.384502700888091659e-02
3.144932401501512875e-02
2.514725180822168296e-02
1.933347575304422347e-02
1.681569872127446769e-02
1.846369823297830046e-02
1.997436445204017058e-02
1.991332743308818487e-02
2.348399304177985550e-02
2.851954710531940523e-02
2.897732474745936052e-02
2.636799218726159147e-02
2.409436323129980628e-02
2.363658558915985100e-02
2.369762260811183671e-02
2.221747489852595944e-02
2.162236396374403805e-02
2.363658558915985100e-02
2.667317728202154778e-02
2.931302835169530968e-02
2.877895443586537400e-02
2.453688161870176687e-02
2.015747550889615894e-02
1.800592059083834517e-02
1.799066133610035048e-02
1.892147587511829043e-02
1.986754966887419732e-02
2.110354930265206236e-02
2.430799279763178750e-02
2.879421369060336869e-02
3.096102786339918062e-02
3.022858363597522371e-02
2.748191778313548855e-02
2.267525254066591472e-02
1.890621662038026105e-02
1.954710531937620469e-02
2.282784508804591370e-02
2.534562211981566948e-02
2.749717703787348325e-02
3.012176885280925046e-02
2.969450972014528456e-02
2.554399243140965600e-02
2.304147465437789491e-02
2.233954893642996556e-02
1.962340159306622325e-02
1.736503189184243623e-02
1.753288369396039173e-02
1.825006866664635394e-02
2.014221625415816078e-02
2.397228919339580364e-02
2.748191778313548855e-02
2.790917691579945098e-02
2.529984435560168193e-02
2.156132694479201764e-02
1.826532792138435210e-02
1.751762443922239704e-02
1.976073488570818590e-02
2.194280831324199252e-02
2.224799340800195230e-02
2.343821527756586448e-02
2.671895504623557349e-02
2.815332499160742505e-02
2.618488113040559964e-02
2.281258583330791553e-02
2.075258644367811503e-02
2.174443800164800947e-02
2.389599291970581976e-02
2.665791802728355309e-02
2.980132450331125782e-02
3.001495406964323903e-02
2.743614001892149754e-02
2.494888149662773461e-02
2.313303018280587001e-02
2.142399365215005153e-02
1.950132755516221714e-02
1.913510544145023695e-02
2.150028992584003540e-02
2.459791863765375258e-02
2.792443617053744567e-02
3.074739829706719940e-02
3.047273171178319778e-02
2.845851008636738483e-02
2.803125095370341893e-02
2.757347331156346365e-02
2.455214087343976156e-02
2.238532670064395311e-02
2.417065950498978669e-02
2.755821405682546896e-02
3.103732413708916102e-02
3.405865657521289780e-02
3.479110080263681654e-02
3.462324900051882981e-02
3.396710104678488801e-02
3.070162053285317369e-02
2.703939939573352796e-02
2.656636249885557452e-02
2.929776909695731499e-02
3.434858241523486289e-02
3.961302529984438853e-02
4.231391338847013267e-02
4.187139500106817208e-02
3.810235908078252187e-02
3.306680501724296867e-02
3.038117618335521922e-02
2.929776909695731499e-02
2.757347331156346365e-02
2.674947355571156635e-02
2.859584337900938564e-02
3.064058351390118798e-02
2.995391705069125679e-02
2.717673268837552877e-02
2.568132572405165681e-02
2.609332560197762454e-02
2.473525193029575339e-02
2.172917874691001131e-02
2.117984557634207746e-02
2.343821527756586448e-02
2.661214026306956554e-02
2.859584337900938564e-02
2.795495468001343853e-02
2.780236213263344303e-02
2.876369518112737930e-02
2.575762199774163722e-02
1.989806817835018671e-02
1.661732840968048117e-02
1.620532853175451343e-02
1.792962431714836477e-02
2.171391949217201661e-02
2.552873317667165784e-02
2.731406598101749489e-02
2.760399182103949120e-02
2.674947355571156635e-02
2.471999267555775523e-02
2.287362285225990124e-02
2.067629016998809993e-02
1.767021698660239254e-02
1.727347636341442297e-02
1.989806817835018671e-02
2.160710470900604335e-02
2.334665974913785469e-02
2.522354808191170153e-02
2.346873378704185734e-02
2.034058656575214730e-02
1.879940183721428779e-02
1.797540208136235232e-02
1.814325388348034598e-02
1.968443861201820549e-02
2.201910458693197292e-02
2.505569627979370786e-02
2.664265877254555492e-02
2.383495590075383752e-02
1.872310556352430738e-02
1.388592181157874243e-02
1.023895992919705671e-02
8.499404889065245369e-03
7.507553331095317972e-03
9.216589861751171148e-03
1.628162480544452853e-02
2.540665913876768989e-02
3.289895321512497500e-02
3.827021088290047390e-02
4.289376506851405590e-02
5.052339243751337999e-02
6.173894466994233471e-02
7.290871913815730188e-02
8.539078951384014571e-02
1.030915250099185276e-01
1.212805566576128646e-01
1.329691457869197624e-01
1.402783288064210765e-01
1.460921048615985984e-01
1.463057344279305449e-01
1.382946256904812876e-01
1.238593707083346512e-01
1.046327097384563559e-01
8.418530838953823536e-02
6.744590594195382094e-02
5.681020538956879640e-02
5.113376262703329955e-02
4.707480086672568426e-02
4.226813562425611043e-02
3.650013733329267318e-02
3.079317606128118695e-02
2.694784386730554940e-02
2.629169591357160760e-02
2.691732535782952185e-02
2.682576982940154675e-02
2.777184362315745017e-02
3.025910214545121310e-02
3.187658314767909118e-02
3.155613879818110201e-02
2.926725058748132213e-02
2.531510361033967663e-02
2.160710470900604335e-02
1.995910519730217242e-02
1.948606830042422244e-02
1.927243873409223776e-02
2.087466048158208645e-02
2.400280770287179302e-02
2.560502945036167641e-02
2.383495590075383752e-02
2.008117923520617853e-02
1.832636494033633434e-02
1.953184606463820999e-02
1.997436445204017058e-02
1.866206854457228698e-02
1.849421674245432801e-02
2.041688283944212770e-02
2.272103030487994044e-02
2.406384472182381343e-02
2.414014099551379383e-02
2.356028931546983590e-02
2.214117862483597904e-02
1.890621662038026105e-02
1.525925473799861001e-02
1.437421796319469057e-02
1.652577288125250260e-02
1.927243873409223776e-02
2.180547502059999171e-02
2.339243751335187693e-02
2.269051179540391289e-02
2.041688283944212770e-02
1.840266121402631475e-02
1.669362468337049626e-02
1.501510666219063594e-02
1.593066194647054651e-02
1.953184606463820999e-02
2.194280831324199252e-02
2.244636371959593882e-02
2.354503006073183774e-02
2.568132572405165681e-02
2.632221442304760045e-02
2.281258583330791553e-02
1.803643910031437272e-02
1.687673574022644993e-02
1.792962431714836477e-02
1.879940183721428779e-02
2.003540147099218752e-02
2.182073427533802457e-02
2.404858546708581873e-02
2.583391827143165231e-02
2.510147404400769541e-02
2.180547502059999171e-02
1.759392071291241214e-02
1.457258827478867709e-02
1.390118106631673886e-02
1.493881038850065554e-02
1.713614307077242216e-02
1.934873500778222163e-02
2.208014160588399333e-02
2.537614062929169703e-02
2.536088137455366764e-02
2.185125278481401742e-02
1.945554979094822959e-02
1.886043885616627350e-02
1.890621662038026105e-02
2.142399365215005153e-02
2.456740012817775973e-02
2.497940000610372746e-02
2.557451094088564886e-02
2.804651020844145179e-02
