1.000000000000000000e+00
9.981688894314401095e-01
9.964751121555222024e-01
9.955595568712424237e-01
9.955595568712424237e-01
9.964445936460463171e-01
9.977721488082521573e-01
9.988250373851741415e-01
9.991149632251961066e-01
9.983062227240822040e-01
9.963682973723563263e-01
9.937589648121585295e-01
9.915463728751487960e-01
9.908749656666767658e-01
9.912717062898648290e-01
9.920651875362407335e-01
9.935911130100405497e-01
9.949949644459363807e-01
9.951628162480543605e-01
9.943235572374644615e-01
9.925687429425946728e-01
9.901272621845148558e-01
9.880520035401469947e-01
9.868465224158451399e-01
9.866176335947752785e-01
9.878688924832911278e-01
9.897610400708028999e-01
9.907681508835107786e-01
9.907681508835107786e-01
9.900662251655628632e-01
9.886165959654530377e-01
9.868923001800591344e-01
9.853968932157353144e-01
9.840998565630054706e-01
9.836115604113894184e-01
9.844355601672414302e-01
9.859920041505172428e-01
9.876705221716970406e-01
9.886776329844050304e-01
9.882351145970030837e-01
9.865718558305611730e-01
9.844508194219794284e-01
9.826044495986815397e-01
9.815057832575456720e-01
9.815210425122835591e-01
9.825739310892055434e-01
9.835810419019135331e-01
9.841761528366954614e-01
9.846034119693594100e-01
9.844050416577653229e-01
9.829859309671316048e-01
9.805139316995757914e-01
9.781792657246619616e-01
9.770195623645739902e-01
9.770653401287880957e-01
9.779808954130679854e-01
9.791863765373698403e-01
9.800408948026977374e-01
9.800714133121738447e-01
9.788964506973478752e-01
9.768822290719321177e-01
9.743797112949003081e-01
9.720450453199865892e-01
9.708395641956846234e-01
9.704275643177586730e-01
9.705191198461866620e-01
9.711905270546585811e-01
9.719382305368206021e-01
9.722281563768425672e-01
9.711447492904446976e-01
9.684591204565569100e-01
9.652546769615770739e-01
9.623096407971434285e-01
9.602801599169896729e-01
9.598071230201116188e-01
9.606616412854395159e-01
9.619281594286934745e-01
9.627826776940213716e-01
9.627674184392833734e-01
9.614093447676014259e-01
9.587542344431897456e-01
9.559465315713979727e-01
9.542222357860041804e-01
9.528183843501082384e-01
9.481795709097566860e-01
9.396801660206914875e-01
9.314249092074343706e-01
9.252449110385447817e-01
9.195684682760093542e-01
9.134037293618578746e-01
9.069032868434705463e-01
9.006775109103670740e-01
8.952757347331156135e-01
8.908810693685720317e-01
8.874629963072603323e-01
8.846552934354685593e-01
8.822901089510788442e-01
8.803216650898769702e-01
8.782921842097232146e-01
8.757591479232154086e-01
8.724021118808557018e-01
8.684652241584521759e-01
8.647419660023804022e-01
8.617053743095186569e-01
8.598437452314828811e-01
8.591723380230108509e-01
8.589281899472028803e-01
8.586382641071809152e-01
8.580736716818749832e-01
8.568071535386211357e-01
8.540147099215673610e-01
8.498641926328317497e-01
8.462324900051880761e-01
8.441572313608203260e-01
8.431501205481124472e-01
8.429059724723043656e-01
8.432416760765403252e-01
8.436689352092043848e-01
8.435010834070864050e-01
8.421887874996185630e-01
8.398083437604907386e-01
8.369090853602709768e-01
8.342539750358591855e-01
8.324686422315134005e-01
8.317361980040894887e-01
8.318582720419933629e-01
8.324686422315134005e-01
8.330942716757713251e-01
8.329264198736533453e-01
8.314004943998534181e-01
8.290047914059877066e-01
8.263496810815759153e-01
8.238013855403301111e-01
8.220465712454603224e-01
8.215124973296303867e-01
8.221076082644123151e-01
8.231299783318581920e-01
8.238166447950682203e-01
8.237556077761162276e-01
8.221381267738883114e-01
8.187658314767906065e-01
8.151188695944090457e-01
8.123722037415692654e-01
8.105410931730093749e-01
8.101748710592974190e-01
8.114871669667653720e-01
8.131809442426831680e-01
8.143559068575090265e-01
8.149815363017669512e-01
8.145542771691030026e-01
8.126468703268532323e-01
8.100527970213934337e-01
8.080385753959775652e-01
8.069093905453658122e-01
8.063905758842738747e-01
8.065736869411297416e-01
8.077181310464797148e-01
8.093203527939695219e-01
8.100985747856074282e-01
8.093966490676595127e-01
8.075807977538376203e-01
8.056123538926358574e-01
8.039185766167180613e-01
8.024079103976561322e-01
8.018433179723502002e-01
8.026215399639881065e-01
8.037659840693379687e-01
8.044984282967619915e-01
8.051240577410199162e-01
8.047730948820458474e-01
8.026978362376780973e-01
8.001342814416942950e-01
7.980590227973265449e-01
7.964262825403606305e-01
7.953733939634387573e-01
7.953733939634387573e-01
7.965788750877406121e-01
7.980285042878505486e-01
7.984862819299904935e-01
7.977233191930905853e-01
7.958464308603167003e-01
7.932065797906430182e-01
7.909024323252051847e-01
7.894833216345713556e-01
7.890408032471694089e-01
7.898190252388072041e-01
7.911923581652271498e-01
7.921994689779350285e-01
7.923368022705770120e-01
7.914212469862971222e-01
7.896664326914273335e-01
7.874996185186314834e-01
7.853785821100497389e-01
7.836848048341318318e-01
7.826319162572099586e-01
7.826013977477339623e-01
7.836390270699178373e-01
7.845698416089357252e-01
7.840815454573197840e-01
7.825251014740439715e-01
7.809381389812921626e-01
7.790917691579942739e-01
7.770775475325785164e-01
7.759025849177526579e-01
7.755058442945645947e-01
7.753685110019226112e-01
7.758873256630146598e-01
7.768791772209844293e-01
7.774895474105044668e-01
7.773369548631243742e-01
7.762077700125125101e-01
7.740562150944547692e-01
7.716757713553270559e-01
7.703024384289071103e-01
7.702108829004791213e-01
7.705008087405010864e-01
7.711569566942350074e-01
7.723471785637989750e-01
7.730643635364848887e-01
7.723166600543228677e-01
7.703024384289071103e-01
7.677999206518753006e-01
7.652058473464155020e-01
7.634052552873318298e-01
7.632374034852137390e-01
7.644276253547777067e-01
7.661976989043854935e-01
7.677236243781853098e-01
7.681508835108492583e-01
7.672200689718313704e-01
7.653126621295816001e-01
7.629932554094057684e-01
7.611163670766318834e-01
7.599871822260201304e-01
7.594378490554520855e-01
7.599566637165440230e-01
7.614978484450818375e-01
7.629779961546677702e-01
7.636646626178776875e-01
7.632221442304757408e-01
7.618182927945799099e-01
7.599719229712820212e-01
7.578966643269142711e-01
7.560197759941403861e-01
7.550126651814325074e-01
7.554094058046205706e-01
7.571337015900142520e-01
7.590105899227881370e-01
7.594988860744040782e-01
7.580492568742942527e-01
7.553483687856684670e-01
7.522659993285927271e-01
7.495193334757529469e-01
7.477645191808831582e-01
7.472457045197912207e-01
7.476119266335031766e-01
7.484664448988310737e-01
7.496566667683949303e-01
7.503433332316049587e-01
7.498092593157749119e-01
7.486037781914731681e-01
7.470320749534592464e-01
7.446668904690695312e-01
7.426984466078675462e-01
7.425916318247016701e-01
7.436445204016235433e-01
7.449415570543533871e-01
7.461775566881312383e-01
7.465590380565813033e-01
7.457808160649433971e-01
7.445295571764275477e-01
7.430188909573656186e-01
7.412488174077577208e-01
7.397839289529098972e-01
7.390057069612719909e-01
7.392498550370799615e-01
7.405468916898098053e-01
7.421338541825617252e-01
7.431409649952694929e-01
7.427442243720816517e-01
7.409741508224738649e-01
7.388073366496780148e-01
7.370983001190221096e-01
7.357860042115542676e-01
7.351908932767723392e-01
7.361369670705282253e-01
7.379375591296121195e-01
7.393108920560319541e-01
7.398297067171238917e-01
7.394177068391979413e-01
7.380901516769921011e-01
7.361827448347422198e-01
7.341532639545884642e-01
7.326120792260506498e-01
7.320780053102206031e-01
7.325663014618365443e-01
7.338633381145664991e-01
7.352977080599382154e-01
7.359691152684102455e-01
7.355113376262703007e-01
7.343211157567064440e-01
7.327494125186925222e-01
7.310708944975127244e-01
7.295907467879269026e-01
7.290719321268349651e-01
7.302774132511367089e-01
7.323679311502425682e-01
7.341532639545884642e-01
7.353129673146763245e-01
7.355265968810082988e-01
7.345347453230384183e-01
7.324289681691945608e-01
7.300485244300667365e-01
7.281563768425549643e-01
7.269203772087771132e-01
7.267067476424451389e-01
7.274391918698690507e-01
7.284310434278389312e-01
7.288430433057649926e-01
7.279732657856989864e-01
7.260963774529252124e-01
7.239448225348673605e-01
7.218695638904996104e-01
7.201757866145817033e-01
7.193365276039918044e-01
7.193212683492539172e-01
7.200384533219397198e-01
7.211981566820275802e-01
7.220526749473555883e-01
7.219458601641896012e-01
7.206488235114597574e-01
7.185125278481399036e-01
7.162236396374400682e-01
7.144993438520462758e-01
7.139652699362163402e-01
7.143925290688802887e-01
7.152012695699941913e-01
7.160710470900601976e-01
7.166051210058900223e-01
7.166356395153661296e-01
7.158726767784661105e-01
7.137974181340982494e-01
7.111880855739006746e-01
7.094943082979826565e-01
7.090060121463667153e-01
7.095858638264106455e-01
7.111728263191625654e-01
7.127750480666523725e-01
7.134311960203862935e-01
7.130191961424604541e-01
7.117679372539444937e-01
7.097994933927426198e-01
7.076937162388988733e-01
7.065797906430250075e-01
7.063356425672170369e-01
7.064729758598590204e-01
7.073427533799250266e-01
7.089297158726767245e-01
7.100131229590745940e-01
7.099063081759087179e-01
7.089754936368907190e-01
7.073122348704489193e-01
7.052980132450330508e-01
7.038331247901852272e-01
7.032532731101412971e-01
7.036652729880672474e-01
7.051759392071291765e-01
7.071443830683309395e-01
7.085787530137028778e-01
7.090517899105807098e-01
7.083651234473709035e-01
7.067018646809289928e-01
7.046113467818231335e-01
7.027649769585252448e-01
7.019867549668874496e-01
7.025971251564073761e-01
7.039857173375652089e-01
7.052980132450330508e-01
7.060151982177189645e-01
7.058931241798150902e-01
7.047334208197272298e-01
7.029480880153813338e-01
7.012085329752494323e-01
6.998199407940915995e-01
6.990112002929776969e-01
6.988586077455977152e-01
6.991943113498336748e-01
7.001861629078035554e-01
7.013916440321055212e-01
7.017273476363413698e-01
7.007507553331095984e-01
6.990264595477156950e-01
6.970732749412518192e-01
6.952421643726920397e-01
6.944792016357920206e-01
6.952116458632159324e-01
6.966307565538498725e-01
6.979888302255318200e-01
6.988280892361217189e-01
6.986449781792657410e-01
6.975005340739158788e-01
6.961272011474959331e-01
6.947843867305520948e-01
6.933194982757041602e-01
6.922513504440442889e-01
6.921140171514023054e-01
6.929990539262061988e-01
6.946165349284341151e-01
6.960356456190679442e-01
6.963103122043520221e-01
6.954710531937620122e-01
6.941282387768181739e-01
6.922513504440442889e-01
6.903592028565325167e-01
6.895046845912046196e-01
6.897030549027985957e-01
6.906338694418163726e-01
6.918240913113803403e-01
6.928464613788262172e-01
6.932889797662281639e-01
6.926938688314462356e-01
6.912442396313364101e-01
6.895504623554185031e-01
6.881160924100466758e-01
6.871852778710287879e-01
6.871395001068147934e-01
6.880703146458326813e-01
6.894589068269905141e-01
6.905728324228644910e-01
6.908017212439344634e-01
6.898403881954404682e-01
6.881618701742606703e-01
6.864986114078187596e-01
6.850795007171849305e-01
6.842097231971190352e-01
6.843623157444990168e-01
6.856288338877528643e-01
6.871700186162907897e-01
6.886654255806146097e-01
6.899319437238685682e-01
6.902523880733664186e-01
6.896114993743704957e-01
6.888027588732565931e-01
6.886654255806146097e-01
6.897488326670124792e-01
6.920987578966644183e-01
6.958677938169500754e-01
7.004150517288735278e-01
7.042146061586351813e-01
7.063966795861689185e-01
7.073122348704489193e-01
7.072054200872829322e-01
7.058015686513869902e-01
7.030701620532853191e-01
6.995300149540696344e-01
6.960203863643300570e-01
6.934873500778222510e-01
6.919614246040223238e-01
6.906949064607684763e-01
6.893368327890866398e-01
6.878566850795007070e-01
6.859187597277748294e-01
6.835383159886471161e-01
6.814325388348033696e-01
6.802880947294533964e-01
6.805017242957853707e-01
6.818292794579912108e-01
6.834162419507431308e-01
6.843165379802850223e-01
6.843012787255470242e-01
6.836756492812890995e-01
6.824091311380352520e-01
6.809595019379253156e-01
6.797540208136234607e-01
6.787011322367015875e-01
6.787011322367015875e-01
6.800134281441694295e-01
6.814630573442792549e-01
6.821344645527511741e-01
6.821344645527511741e-01
6.817835016937773274e-01
6.806543168431653523e-01
6.785027619251075004e-01
6.766563921018097227e-01
6.761986144596697779e-01
6.765953550828577301e-01
6.771294289986876658e-01
6.778466139713735794e-01
6.788384655293435710e-01
6.796624652851954718e-01
6.794335764641254993e-01
6.779229102450635702e-01
6.760307626575517981e-01
6.745200964384898690e-01
6.734977263710439921e-01
6.729483932004760582e-01
6.735282448805200994e-01
6.753746147038178771e-01
6.770531327249976750e-01
6.778771324808496868e-01
6.776787621692555996e-01
6.764427625354777485e-01
6.747947630237738359e-01
6.731620227668080325e-01
6.715292825098422291e-01
6.705679494613483449e-01
6.710104678487502916e-01
6.719260231330301814e-01
6.723380230109561317e-01
6.724143192846462336e-01
6.717581713309120905e-01
6.699118015076143129e-01
6.678060243537705665e-01
6.658833582567827980e-01
6.640064699240089130e-01
6.628772850733970490e-01
6.631824701681569012e-01
6.642200994903408873e-01
6.650288399914547899e-01
6.652729880672627605e-01
6.648304696798608138e-01
6.635029145176549736e-01
6.615192114017151015e-01
6.596728415784173238e-01
6.591082491531112808e-01
6.599932859279151742e-01
6.608630634479811805e-01
6.611377300332651474e-01
6.617786187322610703e-01
6.624042481765191059e-01
6.620685445722830353e-01
6.607257301553393081e-01
6.590166936246834029e-01
6.575060274056214737e-01
6.565141758476517042e-01
6.563463240455336134e-01
6.569414349803155417e-01
6.578875087740714278e-01
6.589709158604692973e-01
6.601458784752952669e-01
6.601763969847712632e-01
6.585131382183293525e-01
6.566972869045075711e-01
6.553086947233497384e-01
6.541795098727377633e-01
6.540879543443097743e-01
6.550492873928036586e-01
6.561021759697256428e-01
6.567430646687215656e-01
6.572008423108615105e-01
6.572313608203375068e-01
6.561632129886776355e-01
6.542710654011658633e-01
6.527909176915799305e-01
6.523331400494399857e-01
6.527603991821039342e-01
6.536301767021698295e-01
6.546678060243537045e-01
6.555070650349437145e-01
6.558732871486556704e-01
6.562547685171056244e-01
6.559495834223456612e-01
6.541642506179997651e-01
6.521805475020600040e-01
6.513107699819941088e-01
6.519058809167760371e-01
6.535233619190038423e-01
6.551866206854456420e-01
6.562547685171056244e-01
6.565141758476517042e-01
6.562547685171056244e-01
6.558122501297036777e-01
6.546678060243537045e-01
6.528061769463179287e-01
6.516922513504440628e-01
6.520126956999419132e-01
6.532181768242438791e-01
6.547593615527816935e-01
6.563005462813196189e-01
6.573839533677175995e-01
6.573686941129794903e-01
6.558732871486556704e-01
6.539353617969297927e-01
6.525925473799860654e-01
6.518906216620380389e-01
6.521195104831080114e-01
6.534012878810999680e-01
6.550798059022797659e-01
6.561784722434156336e-01
6.565904721213415840e-01
6.564989165929135950e-01
6.555528427991577090e-01
6.539811395611438982e-01
6.526535843989379471e-01
6.517838068788719408e-01
6.514938810388499757e-01
6.521500289925838967e-01
6.535996581926938331e-01
6.551103244117556512e-01
6.557206946012756887e-01
6.549272133548997843e-01
6.531723990600299956e-01
6.514175847651599849e-01
6.501815851313821337e-01
6.492965483565782403e-01
6.486709189123204267e-01
6.486556596575823175e-01
6.493881038850062293e-01
6.503494369335002245e-01
6.508835108493301602e-01
6.503799554429761098e-01
6.487319559312723083e-01
6.466109195226904527e-01
6.444746238593707099e-01
6.429486983855708937e-01
6.426740318002869268e-01
6.431165501876888735e-01
6.434522537919248331e-01
6.436201055940428128e-01
6.435132908108767147e-01
6.429181798760947864e-01
6.416821802423169352e-01
6.399731437116611410e-01
6.382488479262672376e-01
6.367992187261574122e-01
6.362041077913754838e-01
6.366313669240394324e-01
6.375926999725333166e-01
6.387218848231451807e-01
6.393169957579272200e-01
6.387371440778832898e-01
6.373485518967254571e-01
6.358073671681874206e-01
6.344340342417675860e-01
6.333506271553698275e-01
6.329386272774437661e-01
6.334421826837977054e-01
6.347239600817895511e-01
6.360972930082093857e-01
6.367076631977294232e-01
6.364024781029694600e-01
6.353190710165715904e-01
6.335184789574876962e-01
6.316263313699759241e-01
6.306802575762200380e-01
6.309854426709800013e-01
6.320230719931638763e-01
6.330607013153478624e-01
6.340067751091037485e-01
6.347392193365276603e-01
6.344645527512436933e-01
6.330149235511337569e-01
6.310159611804558866e-01
6.293527024140140869e-01
6.284371471297341971e-01
6.280098879970702486e-01
6.284524063844721953e-01
6.298409985656300281e-01
6.314889980773339406e-01
6.326029236732078065e-01
6.321756645405437469e-01
6.304971465193639490e-01
6.287423322244941604e-01
6.272011474959563460e-01
6.261940366832483562e-01
6.263924069948424433e-01
6.273384807885983294e-01
6.282082583086642247e-01
6.291085543382061163e-01
6.295052949613941795e-01
6.288033692434461530e-01
6.275063325907163092e-01
6.261482589190343617e-01
6.250190740684224977e-01
6.243018890957365841e-01
6.240119632557146190e-01
6.241340372936186043e-01
6.248817407757805142e-01
6.261635181737724709e-01
6.271401104770043533e-01
6.274147770622883202e-01
6.269264809106722680e-01
6.255226294747764371e-01
6.236304818872646649e-01
6.223334452345347101e-01
6.223639637440107064e-01
6.234473708304085759e-01
6.247291482284005326e-01
6.256752220221564187e-01
6.262245551927243525e-01
6.263313699758903397e-01
6.255989257484664279e-01
6.242713705862604767e-01
6.232795190282907072e-01
6.227759636219367678e-01
6.227912228766746550e-01
6.235084078493606796e-01
6.245765556810205510e-01
6.257972960600604040e-01
6.267891476180302845e-01
6.269417401654102662e-01
6.263313699758903397e-01
6.252632221442304683e-01
6.240272225104526171e-01
6.229438154240546366e-01
6.226996673482467770e-01
6.236304818872646649e-01
6.252174443800165848e-01
6.268044068727682827e-01
6.278267769402141596e-01
6.277809991760002761e-01
6.264992217780083195e-01
6.242713705862604767e-01
6.221198156682027358e-01
6.210211493270668681e-01
6.209448530533768773e-01
6.214331492049928185e-01
6.222571489608448303e-01
6.230964079714346182e-01
6.237525559251685392e-01
6.238288521988585300e-01
6.226538895840326715e-01
6.205481124301889251e-01
6.187322611163670327e-01
6.177556688131351503e-01
6.172826319162572073e-01
6.171910763878292183e-01
6.178777428510391356e-01
6.191137424848169868e-01
6.199987792596209912e-01
6.201055940427869784e-01
6.194189275795770611e-01
6.177404095583972632e-01
6.155888546403394113e-01
6.141087069307535895e-01
6.138492996002075097e-01
6.146427808465834142e-01
6.159398174993133690e-01
6.169316690572832496e-01
6.175115207373271797e-01
6.176946317941831577e-01
6.169011505478072532e-01
6.152531510361033407e-01
6.136661885433515318e-01
6.127964110232855255e-01
6.127506332590716420e-01
6.135898922696615410e-01
6.151005584887233590e-01
6.165196691793572992e-01
6.172826319162572073e-01
6.172826319162572073e-01
6.164128543961913120e-01
6.150700399792474737e-01
6.137424848170415226e-01
6.123996704000976843e-01
6.116672261726737725e-01
6.124607074190496769e-01
6.138187810907316244e-01
6.143833735160374454e-01
6.146885586107974087e-01
6.151005584887233590e-01
6.145817438276314215e-01
6.131015961180455998e-01
6.116214484084596670e-01
6.105380413220617974e-01
6.100802636799218526e-01
6.105990783410137901e-01
6.115451521347696762e-01
6.119571520126957376e-01
6.120334482863857284e-01
6.119571520126957376e-01
6.113315225684377019e-01
6.103244117557298232e-01
6.090121158482619812e-01
6.076235236671040374e-01
6.069215979491562329e-01
6.075930051576281521e-01
6.093173009430218334e-01
6.109347819452498607e-01
6.117893002105777578e-01
6.114230780968658019e-01
6.098361156041138820e-01
6.080202642902921006e-01
6.068147831659901348e-01
6.059602649006622377e-01
6.053498947111423112e-01
6.060975981933042211e-01
6.079439680166021098e-01
6.091494491409039647e-01
6.095919675283059114e-01
6.095614490188299150e-01
6.087527085177160124e-01
6.075624866481520447e-01
6.064943388164922844e-01
6.053651539658803094e-01
6.044648579363384178e-01
6.046327097384563976e-01
6.060213019196142303e-01
6.075777459028901539e-01
6.080355235450300988e-01
6.072573015533920815e-01
6.058839686269722469e-01
6.044648579363384178e-01
6.030915250099185831e-01
6.017487105929746338e-01
6.010010071108127239e-01
6.015655995361186559e-01
6.028473769341105015e-01
6.040070802941983619e-01
6.051973021637623296e-01
6.056855983153783818e-01
6.046174504837183994e-01
6.030610065004424758e-01
6.019013031403546155e-01
6.010010071108127239e-01
6.007110812707907588e-01
6.012604144413586926e-01
6.025116733298745419e-01
6.040528580584124674e-01
6.050447096163823479e-01
6.049073763237403645e-01
6.040223395489364711e-01
6.027863399151586199e-01
6.010467848750267184e-01
5.996276741843927782e-01
5.995513779107027874e-01
6.005432294686727790e-01
6.021149327066865897e-01
6.035340433973205299e-01
6.041291543321024582e-01
6.039460432752464802e-01
6.034882656331064243e-01
6.026184881130405291e-01
6.011688589129307037e-01
6.000091555528427323e-01
5.996887112033448819e-01
5.997802667317727598e-01
6.007263405255287569e-01
6.027405621509445144e-01
6.040528580584124674e-01
6.040986358226264619e-01
6.037934507278663876e-01
6.029999694814905942e-01
6.011993774224067000e-01
5.990936002685629536e-01
5.981627857295449546e-01
5.985900448622089032e-01
5.995208594012269021e-01
6.006805627613147625e-01
6.018250068666646246e-01
6.024658955656605475e-01
6.021607104709005842e-01
6.008636738181707404e-01
5.996276741843927782e-01
5.992461928159429352e-01
5.990478225043488480e-01
5.988952299569688664e-01
5.995208594012269021e-01
6.007873775444807496e-01
6.019928586687826044e-01
6.024658955656605475e-01
6.020233771782586008e-01
6.011078218939786000e-01
5.997802667317727598e-01
5.983458967864009326e-01
5.977660451063570024e-01
5.982543412579729436e-01
5.993377483443708131e-01
6.004058961760307955e-01
6.012604144413586926e-01
6.017639698477127430e-01
6.013824884792626779e-01
5.999633777886288488e-01
5.981627857295449546e-01
5.966368602557451384e-01
5.962401196325570751e-01
5.970030823694570943e-01
5.978576006347849914e-01
5.986205633716848995e-01
5.995666371654407856e-01
6.002227851191747066e-01
5.997192297128207672e-01
5.982848597674490509e-01
5.967741935483871218e-01
5.954161198767051744e-01
5.946989349040192607e-01
5.951261940366832093e-01
5.964842677083651568e-01
5.977813043610950006e-01
5.983153782769249363e-01
5.982848597674490509e-01
5.976134525589770208e-01
5.962858973967711806e-01
5.948820459608753497e-01
5.939359721671193526e-01
5.939359721671193526e-01
5.946836756492812626e-01
5.956755272072512541e-01
5.968504898220771127e-01
5.979796746726889767e-01
5.987121189001128885e-01
5.986205633716848995e-01
5.974456007568590410e-01
5.958586382641071211e-01
5.943784905545212993e-01
5.929898983733634665e-01
5.925931577501754033e-01
5.934781945249794077e-01
5.948362681966612442e-01
5.964232306894131641e-01
5.976592303231910153e-01
5.976287118137150189e-01
5.964995269631031549e-01
5.948362681966612442e-01
5.935087130344554041e-01
5.930509353923153482e-01
5.932493057039094353e-01
5.937070833460493802e-01
5.943937498092592975e-01
5.952940458388011891e-01
5.955839716788231541e-01
5.951567125461593166e-01
5.943632312997834122e-01
5.926084170049134014e-01
5.902737510299996826e-01
5.889767143772697278e-01
5.892818994720298020e-01
5.903500473036896734e-01
5.916318247016815191e-01
5.929136020996734757e-01
5.936765648365733838e-01
5.933103427228614279e-01
5.915250099185155319e-01
5.894955290383617763e-01
5.882747886593219233e-01
5.873744926297799207e-01
5.869624927518540813e-01
5.878170110171818674e-01
5.891598254341258167e-01
5.899685659352397193e-01
5.901364177373576991e-01
5.895718253120517671e-01
5.883968626972257976e-01
5.871913815729239428e-01
5.860927152317880751e-01
5.851313821832940798e-01
5.850093081453902055e-01
5.857570116275521155e-01
5.868709372234259813e-01
5.878933072908718582e-01
5.883510849330119141e-01
5.878017517624438693e-01
5.863368633075960457e-01
5.845057527390362662e-01
5.832697531052583040e-01
5.828577532273323536e-01
5.828424939725943554e-01
5.834986419263282764e-01
5.848567155980102239e-01
5.860621967223120787e-01
5.864894558549760273e-01
5.859096041749320971e-01
5.844752342295601588e-01
5.827509384441663665e-01
5.811639759514145576e-01
5.797448652607806174e-01
5.791344950712606909e-01
5.795617542039247505e-01
5.805383465071565219e-01
5.816370128482925006e-01
5.821253089999084418e-01
5.818353831598864767e-01
5.814996795556504061e-01
5.810876796777245668e-01
5.805688650166326292e-01
5.810724204229865686e-01
5.834070863979003985e-01
5.867641224402599942e-01
5.901058992278817028e-01
5.933866389965514188e-01
5.964537491988890494e-01
5.984374523148289216e-01
5.991698965422529444e-01
5.989715262306588572e-01
5.975524155400249171e-01
5.953093050935392982e-01
5.932645649586473224e-01
5.915707876827295264e-01
5.897549363689077451e-01
5.873287148655660372e-01
5.847041230506302423e-01
5.824152348399304069e-01
5.802331614123966697e-01
5.783410138248847865e-01
5.769676808984649519e-01
5.758690145573290842e-01
5.754570146794030228e-01
5.763420514542069162e-01
5.782341990417187994e-01
5.798516800439467156e-01
5.804467909787286439e-01
5.804620502334665311e-01
5.800500503555405807e-01
5.789971617786187075e-01
5.776390881069368710e-01
5.765709402752769996e-01
5.764488662373730143e-01
5.774407177953427839e-01
5.786919766838587442e-01
5.798059022797326101e-01
5.805230872524186347e-01
5.802179021576586715e-01
5.792718283639027854e-01
5.782341990417187994e-01
5.772881252479628023e-01
5.768456068605608555e-01
5.770287179174169445e-01
5.778069399090548508e-01
5.790429395428328130e-01
5.799432355723745935e-01
5.798974578081605991e-01
5.791192358165228038e-01
5.780053102206488269e-01
5.764488662373730143e-01
5.745414593951231330e-01
5.733512375255592763e-01
5.738090151676991102e-01
5.755180516983550154e-01
5.771202734458449335e-01
5.778984954374828398e-01
5.778832361827448416e-01
5.772118289742728114e-01
5.761284218878749419e-01
5.749839777825250797e-01
5.736564226203191286e-01
5.721610156559954197e-01
5.714896084475235005e-01
5.720694601275674307e-01
5.731833857234412966e-01
5.741142002624591845e-01
5.747245704519791110e-01
5.743888668477432624e-01
5.723593859675893958e-01
5.699331644642475769e-01
5.686971648304696147e-01
5.684987945188756386e-01
5.687124240852076129e-01
5.691244239631336743e-01
5.699179052095095788e-01
5.707419049653614795e-01
5.710013122959074483e-01
5.703756828516495236e-01
5.690176091799676872e-01
5.676290169988097434e-01
5.666829432050538573e-01
5.662556840723897977e-01
5.663624988555558959e-01
5.670949430829798077e-01
5.683919797357097625e-01
5.696737571337016082e-01
5.699026459547715806e-01
5.689107943968017000e-01
5.677968688009278342e-01
5.670339060640278150e-01
5.664693136387218830e-01
5.663014618366039032e-01
5.664235358745078885e-01
5.670491653187658132e-01
5.682851649525436644e-01
5.696127201147496155e-01
5.705740531632434998e-01
5.707113864558854832e-01
5.699484237189855751e-01
5.686513870662556203e-01
5.668355357524338389e-01
5.647907956175419741e-01
5.635395367290261248e-01
5.636768700216681083e-01
5.646382030701619925e-01
5.655384990997039951e-01
5.655537583544419933e-01
5.647602771080660888e-01
5.637836848048340954e-01
5.622882778405102755e-01
5.605487228003784850e-01
5.597399822992645824e-01
5.598925748466444530e-01
5.605945005645924795e-01
5.615710928678243619e-01
5.626850184636982277e-01
5.636158330027161156e-01
5.634784997100741322e-01
5.623340556047241590e-01
5.610522782067324243e-01
5.598467970824304585e-01
5.592059083834345357e-01
5.595568712424084934e-01
5.605639820551163721e-01
5.618457594531083288e-01
5.632648701437421579e-01
5.645924253059481090e-01
5.651875362407300374e-01
5.644856105227820109e-01
5.630054628131961891e-01
5.614642780846582637e-01
5.605487228003784850e-01
5.608996856593524427e-01
5.619525742362743159e-01
5.630970183416241781e-01
5.643940549943541329e-01
5.651417584765160429e-01
5.647602771080660888e-01
5.638447218237860881e-01
5.629444257942441965e-01
5.618152409436322214e-01
5.607165746024963537e-01
5.606097598193304776e-01
5.616168706320383563e-01
5.628528702658162075e-01
5.633259071626941505e-01
5.630817590868861799e-01
5.627765739921262167e-01
5.619830927457503122e-01
5.603503524887843978e-01
5.588854640339365742e-01
5.585345011749626165e-01
5.589770195623645632e-01
5.596331675160984842e-01
5.606555375835443611e-01
5.619830927457503122e-01
5.630054628131961891e-01
5.633716849269081450e-01
5.628833887752922038e-01
5.615710928678243619e-01
5.602740562150944070e-01
5.594500564592425063e-01
5.590227973265785577e-01
5.594958342234565007e-01
5.606707968382824703e-01
5.613727225562302747e-01
5.611896114993744078e-01
5.602130191961424144e-01
5.585039826654866202e-01
5.564745017853328646e-01
5.545670949430828722e-01
5.532547990356150303e-01
5.528122806482130835e-01
5.527970213934750854e-01
5.530259102145450578e-01
5.534989471114231119e-01
5.539872432630389421e-01
5.539262062440870604e-01
5.527665028839992001e-01
5.509353923154394206e-01
5.488753929258094466e-01
5.469832453382976745e-01
5.461592455824457737e-01
5.463118381298257553e-01
5.467085787530137075e-01
5.473494674520096304e-01
5.479750968962676660e-01
5.476546525467695936e-01
5.462813196203496480e-01
5.445875423444318519e-01
5.431531723990600247e-01
5.419934690389720533e-01
5.409405804620502911e-01
5.408032471694081966e-01
5.422833948789940184e-01
5.436567278054139640e-01
5.432447279274880136e-01
5.423444318979461221e-01
5.415509506515701066e-01
5.396588030640583344e-01
5.371257667775505285e-01
5.353709524826807398e-01
5.349894711142307857e-01
5.355845820490127140e-01
5.361186559648426497e-01
5.360118411816766626e-01
5.355235450300607214e-01
5.348368785668508041e-01
5.337687307351909327e-01
5.320902127140110238e-01
5.298471022675252939e-01
5.279854731894894071e-01
5.274513992736594714e-01
5.275887325663014549e-01
5.280312509537034016e-01
5.290993987853633840e-01
5.302285836359751370e-01
5.305337687307351002e-01
5.296639912106693160e-01
5.281228064821313906e-01
5.264137699514755964e-01
5.251167332987456415e-01
5.250251777703177636e-01
5.261543626209295166e-01
5.278481398968475347e-01
5.294351023895992325e-01
5.304727317117832186e-01
5.308999908444471671e-01
5.306253242591632002e-01
5.295571764275032178e-01
5.283974730674153575e-01
5.278328806421094255e-01
5.275124362926114641e-01
5.277871028778954310e-01
5.291604358043153766e-01
5.299539170506912811e-01
5.292519913327433656e-01
5.282143620105594906e-01
5.270699179052095174e-01
5.254676961577197103e-01
5.239112521744437867e-01
5.231940672017577620e-01
5.234229560228278455e-01
5.239722891933957793e-01
5.246894741660816930e-01
5.260475478377636405e-01
5.276039918210394530e-01
5.279549546800134108e-01
5.266731772820214541e-01
5.247505111850336856e-01
5.227210303048799300e-01
5.206915494247260634e-01
5.194555497909482122e-01
5.195318460646382031e-01
5.202490310373241167e-01
5.212714011047699936e-01
5.221869563890499943e-01
5.224005859553818576e-01
5.220343638416699017e-01
5.210577715384380193e-01
5.193334757530442269e-01
5.173955504013184603e-01
5.161748100222784963e-01
5.160679952391125092e-01
5.168004394665364210e-01
5.176091799676504346e-01
5.174718466750084511e-01
5.161595507675406092e-01
5.139316995757927664e-01
5.107730338450269247e-01
5.070345164342173749e-01
5.031434064760276215e-01
4.993285927915280253e-01
4.959868160039063167e-01
4.936521500289925979e-01
4.921262245551926706e-01
4.904782250434889246e-01
4.884487441633350580e-01
4.857325968199713295e-01
4.821466719565415948e-01
4.785912656025879119e-01
4.755699331644642203e-01
4.731894894253363959e-01
4.719229712820825484e-01
4.718008972441785631e-01
4.722891933957946153e-01
4.723349711600085543e-01
4.712515640736106848e-01
4.694967497787407851e-01
4.674520096438490313e-01
4.654072695089572220e-01
4.637134922330392595e-01
4.625690481276894528e-01
4.622486037781914359e-01
4.628437147129734197e-01
4.636982329783013723e-01
4.640034180730612245e-01
4.639576403088472856e-01
4.636219367046113815e-01
4.625537888729514546e-01
4.611651966917935663e-01
4.602649006622516747e-01
4.598376415295877262e-01
4.599291970580156597e-01
4.607989745780816104e-01
4.616840113528855594e-01
4.620960112308114542e-01
4.623706778160954767e-01
4.622333445234534932e-01
4.613025299844355498e-01
4.596697897274696909e-01
4.584032715842157879e-01
4.581896420178838136e-01
4.587084566789758067e-01
4.600207525864436486e-01
4.615314188055055222e-01
4.625995666371653936e-01
4.634235663930172944e-01
4.631641590624713811e-01
4.614246040223394796e-01
4.594714194158757703e-01
4.581896420178838136e-01
4.577013458662679279e-01
4.580370494705038320e-01
4.587389751884518585e-01
4.597308267464216835e-01
4.606921597949155678e-01
4.609057893612475421e-01
4.604632709738455953e-01
4.592883083590197368e-01
4.574114200262459073e-01
4.558549760429700948e-01
4.552140873439740609e-01
4.554582354197820870e-01
4.564500869777519676e-01
4.577166051210058706e-01
4.587237159337138048e-01
4.590746787926877626e-01
4.586779381694998103e-01
4.576097903378398835e-01
4.560075685903500209e-01
4.542985320596942267e-01
4.532303842280342998e-01
4.536271248512223075e-01
4.550462355418561367e-01
4.566484572893459992e-01
4.580065309610278357e-01
4.584032715842157879e-01
4.577013458662679279e-01
4.565569017609179547e-01
4.553361613818781573e-01
4.543137913144322249e-01
4.540391247291482024e-01
4.543748283333842175e-01
4.549851985229041440e-01
4.559923093356120782e-01
4.570604571672718941e-01
4.574724570451979555e-01
4.568468276009399198e-01
4.555497909482101315e-01
4.544053468428601583e-01
4.539170506912442726e-01
4.537034211249122984e-01
4.536576433606982484e-01
4.541001617481001951e-01
4.551988280892361183e-01
4.562822351756340433e-01
4.567094943082979919e-01
4.564043092135379731e-01
4.551683095797601220e-01
4.535355693227942631e-01
4.525284585100863288e-01
4.522080141605884229e-01
4.527115695669423068e-01
4.541306802575762469e-01
4.556718649861140613e-01
4.567400128177739882e-01
4.570757164220099478e-01
4.565874202703940066e-01
4.554124576555680926e-01
4.537797173986022892e-01
4.524979400006103880e-01
4.521469771416364303e-01
4.526657918027283678e-01
4.536423841059602502e-01
4.544816431165501491e-01
4.549851985229041440e-01
4.554277169103060907e-01
4.557634205145421058e-01
4.554429761650440889e-01
4.540238654744102598e-01
4.525742362743003788e-01
4.522690511795403601e-01
4.527268288216803604e-01
4.536881618701742447e-01
4.546494949186681844e-01
4.547868282113101679e-01
4.548326059755241624e-01
4.549089022492141532e-01
4.540543839838862006e-01
4.527115695669423068e-01
4.518112735374004152e-01
4.513687551499984130e-01
4.518265327921384134e-01
4.533524582659382851e-01
4.547868282113101679e-01
4.554277169103060907e-01
4.554277169103060907e-01
4.548631244850001587e-01
4.538712729270302226e-01
4.530930509353923163e-01
4.525284585100863288e-01
4.519638660847803968e-01
4.519333475753044560e-01
4.527115695669423068e-01
4.540696432386242543e-01
4.559465315713980837e-01
4.575640125736258890e-01
4.575792718283638871e-01
4.559770500808740246e-01
4.541917172765281840e-01
4.531388286996062553e-01
4.529099398785363384e-01
4.533982360301522796e-01
4.542832728049562285e-01
4.553819391460920962e-01
4.564195684682760268e-01
4.569689016388439606e-01
4.565721610156560084e-01
4.551835688344981756e-01
4.535050508133182667e-01
4.523911252174444009e-01
4.520706808679464395e-01
4.525742362743003788e-01
4.537339396343882392e-01
4.550767540513321330e-01
4.561296426282540617e-01
4.562974944303720415e-01
4.555192724387340797e-01
4.544206060975982120e-01
4.534440137943662741e-01
4.527878658406323531e-01
4.523911252174444009e-01
4.522690511795403601e-01
4.528489028595842902e-01
4.541154210028381932e-01
4.552446058534501128e-01
4.557481612598040521e-01
4.555955687124240705e-01
4.544969023712882028e-01
4.528031250953703513e-01
4.518265327921384134e-01
4.519638660847803968e-01
4.526810510574663660e-01
4.540086062196722061e-01
4.558549760429700948e-01
4.575334940641498926e-01
4.588000122074037956e-01
4.596240119632557519e-01
4.596240119632557519e-01
4.585863826410718214e-01
4.573656422620319129e-01
4.570299386577959533e-01
4.574266792809839055e-01
4.580980864894558247e-01
4.591967528305917479e-01
4.603259376812036119e-01
4.609057893612475421e-01
4.603869747001556600e-01
4.583269753105257971e-01
4.559160130619220874e-01
4.544358653523362102e-01
4.537644581438642355e-01
4.536271248512223075e-01
4.537797173986022892e-01
4.540391247291482024e-01
4.546494949186681844e-01
4.552293465987121146e-01
4.550614947965940793e-01
4.540849024933621969e-01
4.527573473311563568e-01
4.516891994994964299e-01
4.511093478194524997e-01
4.510940885647145016e-01
4.518723105563524078e-01
4.532761619922482943e-01
4.542680135502181749e-01
4.544206060975982120e-01
4.542069765312662377e-01
4.533829767754142814e-01
4.518570513016144652e-01
4.505447553941465677e-01
4.502700888088625453e-01
4.509872737815485144e-01
4.518723105563524078e-01
4.523911252174444009e-01
4.529862361522263292e-01
4.539323099459822153e-01
4.543748283333842175e-01
4.538254951628162281e-01
4.528031250953703513e-01
4.517960142826624170e-01
4.509872737815485144e-01
4.509872737815485144e-01
4.517502365184484225e-01
4.524826807458723343e-01
4.531998657185583035e-01
4.540086062196722061e-01
4.540696432386242543e-01
4.531083101901303145e-01
4.519333475753044560e-01
4.510177922910245107e-01
4.503769035920285879e-01
4.504226813562425269e-01
4.514297921689504611e-01
4.529709768974883310e-01
4.539628284554582116e-01
4.538865321817682208e-01
4.532761619922482943e-01
4.525589770195623252e-01
4.517654957731864207e-01
4.509567552720725181e-01
4.502395702993865489e-01
4.500869777520065673e-01
4.508041627246925365e-01
4.519028290658284042e-01
4.530625324259163200e-01
4.544969023712882028e-01
4.553971984008300944e-01
4.550920133060701311e-01
4.545121616260262010e-01
4.542069765312662377e-01
4.544206060975982120e-01
4.561143833735160080e-01
4.593493453779717295e-01
4.629047517319253569e-01
4.662007507553331265e-01
4.692220831934568182e-01
4.715262306588946517e-01
4.728232673116244400e-01
4.729606006042664235e-01
4.718466750083925021e-01
4.700155644398327226e-01
4.676961577196570019e-01
4.651173436689351459e-01
4.629047517319253569e-01
4.611651966917935663e-01
4.593493453779717295e-01
4.573198644978179184e-01
4.554277169103060907e-01
4.535660878322702594e-01
4.518112735374004152e-01
4.511703848384044924e-01
4.519791253395183950e-01
4.528641621143223439e-01
4.531998657185583035e-01
4.543290505691701675e-01
4.559465315713980837e-01
4.562059389019440525e-01
4.555497909482101315e-01
4.550157170323801403e-01
4.539475692007202690e-01
4.526963103122043086e-01
4.528641621143223439e-01
4.542985320596942267e-01
4.556260872219001223e-01
4.561906796472059988e-01
4.563737907040619768e-01
4.564653462324900213e-01
4.560380870998260172e-01
4.547410504470961734e-01
4.532303842280342998e-01
4.523911252174444009e-01
4.524674214911343917e-01
4.537186803796502410e-01
4.557176427503280558e-01
4.570299386577959533e-01
4.572130497146518757e-01
4.568010498367259808e-01
4.561601611377300025e-01
4.552293465987121146e-01
4.540696432386242543e-01
4.531388286996062553e-01
4.527115695669423068e-01
4.532761619922482943e-01
4.549241615039520958e-01
4.566179387798699474e-01
4.577013458662679279e-01
4.578997161778618485e-01
4.572740867336039239e-01
4.563585314493240341e-01
4.552903836176640517e-01
4.546494949186681844e-01
4.555345316934720779e-01
4.572283089693899294e-01
4.580980864894558247e-01
4.584948271126438324e-01
4.592425305948057423e-01
4.597003082369457427e-01
4.591051973021638144e-01
4.580370494705038320e-01
4.573656422620319129e-01
4.568010498367259808e-01
4.560075685903500209e-01
4.556260872219001223e-01
4.563585314493240341e-01
4.578539384136478541e-01
4.588305307168797920e-01
4.587542344431898012e-01
4.579607531968138412e-01
4.568468276009399198e-01
4.558854945524460356e-01
4.552903836176640517e-01
4.551835688344981756e-01
4.561143833735160080e-01
4.577776421399579188e-01
4.589220862453077809e-01
4.592272713400677442e-01
4.589526047547837773e-01
4.583117160557878544e-01
4.574724570451979555e-01
4.565874202703940066e-01
4.561754203924680007e-01
4.568163090914640345e-01
4.585863826410718214e-01
4.607989745780816104e-01
4.627216406750694344e-01
4.639728995635853392e-01
4.644306772057252841e-01
4.643238624225592415e-01
4.638813440351572948e-01
4.632709738456373127e-01
4.627368999298074881e-01
4.626758629108553844e-01
4.633930478835414091e-01
4.642475661488692507e-01
4.645985290078432084e-01
4.647663808099612437e-01
4.646290475173192602e-01
4.634998626667073407e-01
4.617297891170994983e-01
4.601580858790856876e-01
4.589373455000457791e-01
4.583422345652638508e-01
4.587542344431898012e-01
4.597308267464216835e-01
4.604937894833216472e-01
4.608905301065095994e-01
4.611346781823175145e-01
4.609210486159855957e-01
4.595324564348277074e-01
4.572893459883419220e-01
4.555040131839960815e-01
4.547563097018341716e-01
4.549089022492141532e-01
4.560228278450880190e-01
4.577929013946958614e-01
4.593188268684957332e-01
4.597460860011596817e-01
4.594103823969237221e-01
4.590746787926877626e-01
4.585711233863338232e-01
4.580217902157658338e-01
4.584185308389538416e-01
4.599139378032777170e-01
4.615466780602435759e-01
4.629657887508774605e-01
4.644764549699392786e-01
4.655903805658131445e-01
4.656514175847651371e-01
4.646137882625812066e-01
4.634846034119693980e-01
4.632099368266853756e-01
4.636371959593492686e-01
4.646595660267953121e-01
4.662770470290231173e-01
4.682454908902248802e-01
4.698019348735007483e-01
4.703665272988066803e-01
4.704123050630207303e-01
4.698782311471907391e-01
4.686880092776268825e-01
4.681234168523209505e-01
4.686117130039368361e-01
4.693441572313608035e-01
4.700460829493087744e-01
4.710531937620166532e-01
4.719687490462965984e-01
4.719534897915585447e-01
4.709616382335886087e-01
4.694051942503127406e-01
4.672536393322550552e-01
4.650410473952451551e-01
4.636524552140873223e-01
4.629505294961394624e-01
4.624164555803094712e-01
4.619434186834314726e-01
4.609363078707235939e-01
4.588457899716177346e-01
4.563432721945860360e-01
4.543290505691701675e-01
4.522843104342784137e-01
4.499496444593645839e-01
4.486220892971587437e-01
4.486831263161107364e-01
4.490646076845606904e-01
4.496749778740806169e-01
4.504531998657185787e-01
4.501937925351725545e-01
4.489425336466567051e-01
4.479049043244727746e-01
4.469435712759788903e-01
4.461806085390789822e-01
4.467757194738608550e-01
4.488814966277047125e-01
4.515518662068545019e-01
4.538254951628162281e-01
4.553971984008300944e-01
4.562974944303720415e-01
4.564500869777519676e-01
4.561449018829920599e-01
4.557481612598040521e-01
4.561601611377300025e-01
4.578691976683859077e-01
4.598834192938016652e-01
4.616534928434095075e-01
4.632099368266853756e-01
4.645069734794152749e-01
4.653157139805292331e-01
4.651326029236731996e-01
4.643848994415112341e-01
4.637897885067293058e-01
4.634693441572313999e-01
4.637440107425153113e-01
4.650257881405072680e-01
4.676961577196570019e-01
4.713431196020386182e-01
4.741508224738303356e-01
4.748985259559923011e-01
4.738761558885463687e-01
4.714194158757286091e-01
4.680166020691549078e-01
4.642017883846553117e-01
4.601886043885616284e-01
4.569078646198919680e-01
4.550614947965940793e-01
4.540086062196722061e-01
4.528336436048463476e-01
4.504684591204565769e-01
4.471419415875728665e-01
4.434492019409771446e-01
4.391003143406476128e-01
4.344462416455580067e-01
4.304940946684164271e-01
4.276863917966245987e-01
4.258552812280648192e-01
4.248329111606189423e-01
4.243598742637409438e-01
4.232612079226050206e-01
4.210180974761192907e-01
4.184240241706594921e-01
4.157536545915098136e-01
4.127780999176000609e-01
4.098941007721182972e-01
4.080782494582964604e-01
4.075289162877285265e-01
4.072389904477065614e-01
4.063386944181646143e-01
4.048585467085787371e-01
4.029053621021149167e-01
4.003418073061311699e-01
3.977477340006714268e-01
3.955504013183996359e-01
3.933683278908657877e-01
3.918881801812799104e-01
3.918271431623279177e-01
3.923764763328959071e-01
3.927579577013458612e-01
3.927426984466079185e-01
3.921781060213018755e-01
3.909573656422620780e-01
3.889584032715842077e-01
3.869441816461683947e-01
3.858455153050325270e-01
3.853572191534165303e-01
3.852809228797265395e-01
3.858912930692464660e-01
3.867915890987884131e-01
3.874019592883083951e-01
3.874629963072603323e-01
3.867305520798364205e-01
3.852656636249885969e-01
3.838160344248786604e-01
3.830683309427167504e-01
3.828547013763847207e-01
3.828394421216467780e-01
3.836787011322366769e-01
3.851435895870845560e-01
3.858302560502944734e-01
3.854640339365825175e-01
3.840754417554246847e-01
3.819849238563188254e-01
3.803369243446149683e-01
3.793450727866451433e-01
3.791772209845271080e-01
3.801690725424969886e-01
3.817407757805108548e-01
3.830530716879788078e-01
3.836939603869746751e-01
3.836329233680227380e-01
3.830225531785027560e-01
3.820612201300088162e-01
3.805810724204229945e-01
3.789941099276711300e-01
3.782921842097232146e-01
3.785821100497451797e-01
3.792535172582170988e-01
3.796044801171910565e-01
3.793450727866451433e-01
3.786126285592212315e-01
3.774224066896573193e-01
3.760795922727134255e-01
3.754997405926694953e-01
3.756523331400494770e-01
3.761406292916653626e-01
3.771629993591112950e-01
3.787041840876491650e-01
3.801232947782829941e-01
3.808862575151829577e-01
3.810083315530868875e-01
3.803979613635670165e-01
3.792840357676930951e-01
3.783074434644612127e-01
3.778496658223212123e-01
3.782006286812951701e-01
3.792992950224310378e-01
3.806421094393749316e-01
3.818323313089388438e-01
3.828699606311227743e-01
3.834345530564287063e-01
3.827936643574327835e-01
3.813135166478469062e-01
3.801385540330210477e-01
3.794061098055970804e-01
3.792992950224310378e-01
3.802301095614490367e-01
3.815729239783929305e-01
3.826258125553148037e-01
3.833735160374767137e-01
3.837092196417127288e-01
3.836024048585466861e-01
3.830072939237647578e-01
3.816644795068209195e-01
3.804742576372570073e-01
3.808709982604449595e-01
3.821222571489608089e-01
3.830072939237647578e-01
3.838312936796166586e-01
3.845332193975646851e-01
3.845789971617786240e-01
3.841822565385906163e-01
3.836481826227606806e-01
3.826105533005768056e-01
3.814966277047029397e-01
3.817102572710349140e-01
3.831598864711447394e-01
3.843806268501846479e-01
3.851741080965605524e-01
3.859218115787225178e-01
3.859828485976745105e-01
3.850672933133945652e-01
3.836939603869746751e-01
3.823664052247688350e-01
3.814050721762748952e-01
3.814661091952268879e-01
3.828852198858607725e-01
3.843043305764946571e-01
3.848994415112766410e-01
3.849909970397045744e-01
3.847926267281105983e-01
3.841669972838526181e-01
3.829309976500747115e-01
3.816644795068209195e-01
3.810083315530868875e-01
3.812219611194189173e-01
3.824732200079348221e-01
3.841822565385906163e-01
3.854335154271065211e-01
3.861354411450544921e-01
3.862117374187444829e-01
3.853267006439405340e-01
3.839381084627827012e-01
3.829462569048127651e-01
3.827021088290047390e-01
3.831904049806207913e-01
3.842890713217566589e-01
3.852961821344645377e-01
3.859523300881985142e-01
3.866542558061464296e-01
3.871578112125003690e-01
3.870204779198583855e-01
3.860896633808404421e-01
3.848078859828485965e-01
3.838312936796166586e-01
3.832514419995727284e-01
3.836634418774987343e-01
3.855861079744865583e-01
3.877681814020203510e-01
3.885616626483962555e-01
3.881801812799462459e-01
3.874629963072603323e-01
3.866237372966703778e-01
3.858760338145085234e-01
3.854640339365825175e-01
3.855861079744865583e-01
3.863643299661244646e-01
3.872493667409283580e-01
3.879207739494003326e-01
3.883480330820642812e-01
3.881801812799462459e-01
3.875698110904263194e-01
3.865779595324564388e-01
3.854487746818445193e-01
3.852198858607744913e-01
3.858149967955564752e-01
3.862575151829584219e-01
3.862727744376964201e-01
3.862727744376964201e-01
3.862727744376964201e-01
3.858455153050325270e-01
3.849299600207525263e-01
3.838618121890927104e-01
3.830225531785027560e-01
3.824732200079348221e-01
3.822901089510788442e-01
3.829615161595507633e-01
3.850062562944425726e-01
3.872646259956664117e-01
3.879207739494003326e-01
3.870204779198583855e-01
3.857844782860805344e-01
3.847926267281105983e-01
3.838312936796166586e-01
3.831293679616687431e-01
3.833429975280007729e-01
3.844874416333505796e-01
3.860438856166264476e-01
3.872341074861903598e-01
3.878139591662342900e-01
3.879818109683523253e-01
3.874172185430463933e-01
3.861659596545304884e-01
3.852351451155125450e-01
3.850825525681325634e-01
3.853267006439405340e-01
3.860744041261024995e-01
3.877376628925442992e-01
3.898129215369121048e-01
3.910184026612140151e-01
3.908963286233100298e-01
3.897671437726981658e-01
3.882564775536362367e-01
3.869594409009063929e-01
3.862269966734824811e-01
3.862880336924344737e-01
3.872035889767143635e-01
3.887600329599902316e-01
3.901028473769340699e-01
3.906521805475020592e-01
3.905453657643360166e-01
3.899960325937681382e-01
3.891872920926542356e-01
3.881954405346842440e-01
3.874935148167363286e-01
3.876461073641163102e-01
3.887142551957762371e-01
3.903469954527420960e-01
3.916745506149479361e-01
3.920102542191839512e-01
3.916898098696859898e-01
3.915372173223060082e-01
3.920407727286598920e-01
3.926816614276558703e-01
3.928495132297738501e-01
3.929258095034638409e-01
3.933225501266518487e-01
3.941770683919796903e-01
3.954130680257575969e-01
3.963896603289894793e-01
3.965117343668935757e-01
3.955961790826135749e-01
3.939939573351237678e-01
3.923459578234199108e-01
3.912625507370220412e-01
3.912930692464979820e-01
3.919797357097079549e-01
3.925748466444898832e-01
3.931546983245338134e-01
3.934598834192937766e-01
3.929105502487258428e-01
3.917661061433759806e-01
3.904538102359080831e-01
3.892635883663442264e-01
3.881496627704703051e-01
3.873409222693564025e-01
3.876308481093783675e-01
3.888058107242042261e-01
3.900112918485060809e-01
3.907895138401440427e-01
3.905453657643360166e-01
3.892941068758201673e-01
3.879055146946622790e-01
3.868678853724784039e-01
3.860896633808404421e-01
3.859065523239844642e-01
3.864864040040283943e-01
3.874019592883083951e-01
3.881649220252083032e-01
3.886226996673481926e-01
3.888058107242042261e-01
3.880733664967803143e-01
3.864406262398144554e-01
3.854029969176305803e-01
3.852961821344645377e-01
3.852809228797265395e-01
3.854335154271065211e-01
3.863032929471724719e-01
3.873714407788323433e-01
3.879055146946622790e-01
3.879818109683523253e-01
3.874324777977843359e-01
3.859828485976745105e-01
3.846400341807306167e-01
3.842280343028046663e-01
3.844569231238746942e-01
3.850672933133945652e-01
3.863338114566484127e-01
3.879512924588763290e-01
3.888973662526322705e-01
3.887600329599902316e-01
3.877376628925442992e-01
3.859981078524125087e-01
3.845179601428266314e-01
3.841059602649006810e-01
3.845942564165166222e-01
3.856013672292245009e-01
3.867305520798364205e-01
3.878749961851863381e-01
3.890346995452742540e-01
3.895229956968901397e-01
3.889278847621082114e-01
3.876918851283303602e-01
3.863032929471724719e-01
3.850672933133945652e-01
3.846705526902066130e-01
3.854182561723685785e-01
3.867610705893124168e-01
3.882259590441602959e-01
3.897976622821741621e-01
3.911252174443800023e-01
3.913388470107120320e-01
3.906674398022401129e-01
3.904080324716940331e-01
3.908047730948820409e-01
3.918729209265419677e-01
3.945280312509537035e-01
3.983428449354533551e-01
4.019898068178350270e-01
4.051942503128146966e-01
4.082155827509384438e-01
4.102755821405683068e-01
4.103976561784722366e-01
4.089480269783624111e-01
4.066133610034485812e-01
4.037751396221808675e-01
4.010895107882931354e-01
3.989226966154972853e-01
3.966643269142735573e-01
3.942228461561937958e-01
3.922849208044679181e-01
3.908047730948820409e-01
3.893551438947721599e-01
3.880581072420423161e-01
3.870967741935483764e-01
3.867915890987884131e-01
3.874324777977843359e-01
3.889889217810602040e-01
3.908047730948820409e-01
3.917813653981139788e-01
3.919339579454939049e-01
3.917050691244239879e-01
3.909421063875240243e-01
3.896908474990081750e-01
3.888363292336802224e-01
3.892025513473921783e-01
3.903622547074800941e-01
3.916287728507339971e-01
3.926816614276558703e-01
3.937650685140537954e-01
3.946501052888576888e-01
3.942838831751457329e-01
3.925595873897518850e-01
3.905148472548600758e-01
3.890804773094881930e-01
3.890499588000121967e-01
3.904995880001220776e-01
3.922849208044679181e-01
3.937345500045777436e-01
3.948789941099277168e-01
3.953978087710196543e-01
3.948332163457136668e-01
3.936735129856257509e-01
3.925595873897518850e-01
3.915677358317819490e-01
3.912472914822840431e-01
3.920865504928739420e-01
3.936735129856257509e-01
3.951994384594256227e-01
3.960081789605395808e-01
3.960997344889675142e-01
3.955656605731375786e-01
3.942991424298837866e-01
3.928800317392499020e-01
3.923459578234199108e-01
3.925138096255378906e-01
3.932462538529618579e-01
3.946043275246436943e-01
3.957182531205176157e-01
3.960692159794915734e-01
3.962981048005615459e-01
3.963286233100374867e-01
3.953062532425916098e-01
3.938108462782677344e-01
3.932157353434858060e-01
3.934751426740318303e-01
3.940549943540757605e-01
3.951689199499496818e-01
3.965880306405835665e-01
3.975493636890774507e-01
3.977477340006714268e-01
3.968474379711294797e-01
3.952757347331156135e-01
3.943449201940977256e-01
3.943449201940977256e-01
3.945890682699057517e-01
3.950468459120456410e-01
3.960386974700155216e-01
3.970610675374614540e-01
3.976561784722433823e-01
3.979613635670033456e-01
3.977782525101473676e-01
3.967101046784874963e-01
3.951384014404736300e-01
3.942228461561937958e-01
3.947416608172857333e-01
3.960234382152775234e-01
3.971984008301034375e-01
3.984649189733572849e-01
3.994109927671132265e-01
3.992889187292092412e-01
3.988616595965452927e-01
3.988464003418072945e-01
3.986175115207372666e-01
3.975646229438154489e-01
3.967253639332254944e-01
3.970458082827234558e-01
3.980376598406933919e-01
3.992278817102572486e-01
4.005401776177250905e-01
4.014557329020050913e-01
4.009521774956511520e-01
3.993346964934232357e-01
3.980071413312173956e-01
3.974730674153874599e-01
3.974883266701254025e-01
3.980224005859553382e-01
3.993346964934232357e-01
4.009369182409130983e-01
4.020966216010009586e-01
4.024323252052370292e-01
4.019287697988830343e-01
4.011505478072450726e-01
4.004181035798211608e-01
3.999450666829431622e-01
3.999755851924192140e-01
4.002349925229651828e-01
4.010742515335550817e-01
4.027680288094729333e-01
4.042176580095828142e-01
4.047517319254126944e-01
4.045686208685567720e-01
4.039429914242987918e-01
4.032563249610888745e-01
4.030121768852809594e-01
4.030274361400189576e-01
4.034852137821589024e-01
4.049653614917447242e-01
4.067049165318765702e-01
4.078493606372264879e-01
4.082918790246284346e-01
4.078493606372264879e-01
4.068117313150425574e-01
4.057893612475966250e-01
4.053926206244087282e-01
4.057588427381206841e-01
4.064607684560685996e-01
4.074983977782524747e-01
4.087801751762443758e-01
4.095278786584063413e-01
4.095583971678823376e-01
4.091311380352183336e-01
4.083681752983184254e-01
4.076052125614185173e-01
4.071474349192785169e-01
4.070406201361125853e-01
4.074373607593004820e-01
4.082766197698904920e-01
4.090853602710043946e-01
4.095583971678823376e-01
4.096652119510483248e-01
4.088869899594103630e-01
4.071626941740165706e-01
4.055299539170507117e-01
4.045075838496048348e-01
4.042786950285348069e-01
4.049501022370067815e-01
4.061098055970946419e-01
4.074678792687765339e-01
4.083376567888424291e-01
4.078188421277504916e-01
4.063386944181646143e-01
4.049348429822687834e-01
4.036530655842768267e-01
4.025849177526170108e-01
4.024323252052370292e-01
4.031495101779228873e-01
4.043855098117007385e-01
4.055757316812646507e-01
4.061250648518326400e-01
4.064302499465926588e-01
4.063539536729026680e-01
4.053163243507187374e-01
4.038514358958708583e-01
4.029053621021149167e-01
4.028290658284248704e-01
4.035309915463728969e-01
4.045838801232947701e-01
4.053163243507187374e-01
4.057435834833826860e-01
4.058656575212866158e-01
4.053315836054566801e-01
4.043855098117007385e-01
4.033173619800409226e-01
4.024781029694509682e-01
4.024475844599749719e-01
4.030121768852809594e-01
4.041108432264168271e-01
4.058351390118106750e-01
4.069643238624225390e-01
4.068269905697805555e-01
4.062623981444746235e-01
4.054536576433607209e-01
4.043092135380107477e-01
4.035920285653248896e-01
4.035767693105868359e-01
4.041413617358928234e-01
4.055146946623126580e-01
4.073763237403485449e-01
4.085665456099124571e-01
4.084597308267464144e-01
4.076967680898465063e-01
4.071626941740165706e-01
4.067964720603046147e-01
4.063844721823785533e-01
4.064302499465926588e-01
4.070711386455885261e-01
4.078798791467024842e-01
4.085055085909604089e-01
4.086581011383403905e-01
4.081545457319863957e-01
4.065981017487105831e-01
4.043549913022248532e-01
4.023102511673329329e-01
4.007843256935331167e-01
3.998077333903011787e-01
3.994109927671132265e-01
3.994262520218512247e-01
4.000061037018952104e-01
4.006775109103671295e-01
4.004181035798211608e-01
3.991363261818292596e-01
3.971831415753654948e-01
3.956266975920896267e-01
3.948942533646656594e-01
3.943906979583117201e-01
3.946501052888576888e-01
3.955809198278755767e-01
3.962828455458235477e-01
3.966643269142735573e-01
3.964201788384655312e-01
3.955504013183996359e-01
3.946348460341196906e-01
3.939176610614337770e-01
3.935819574571977619e-01
3.938413647877437862e-01
3.947721793267616741e-01
3.960081789605395808e-01
3.972136600848414356e-01
3.983123264259773588e-01
3.986785485396893147e-01
3.983123264259773588e-01
3.977019562364574323e-01
3.967864009521774871e-01
3.962828455458235477e-01
3.969695120090334650e-01
3.983428449354533551e-01
3.995788445692312063e-01
4.004638813440350997e-01
4.011658070619831262e-01
4.014404736472670376e-01
4.013183996093631078e-01
4.009826960051270928e-01
4.002502517777031255e-01
3.998229926450392324e-01
4.002807702871791773e-01
4.011658070619831262e-01
4.022949919125949902e-01
4.034394360179448524e-01
4.041871395001068179e-01
4.043397320474867995e-01
4.038209173863948620e-01
4.027680288094729333e-01
4.016388439588610693e-01
4.007690664387951185e-01
4.002502517777031255e-01
4.000518814661092049e-01
4.004181035798211608e-01
4.015472884304330803e-01
4.024781029694509682e-01
4.023255104220709866e-01
4.012878810998870560e-01
3.998077333903011787e-01
3.986632892849513721e-01
3.982818079165013625e-01
3.982055116428113717e-01
3.983733634449293515e-01
3.990600299081392688e-01
4.001739555040131346e-01
4.010437330240790854e-01
4.010742515335550817e-01
4.006012146366771387e-01
3.997924741355632361e-01
3.986480300302133184e-01
3.979461043122653474e-01
3.982207708975493698e-01
3.991668446913053114e-01
3.999908444471572122e-01
4.006317331461531350e-01
4.013641773735770468e-01
4.016388439588610693e-01
4.013641773735770468e-01
4.010895107882931354e-01
4.003112887966551181e-01
3.990905484176153206e-01
3.986327707754753202e-01
3.994262520218512247e-01
4.011200292977690762e-01
4.027680288094729333e-01
4.035767693105868359e-01
4.037751396221808675e-01
4.035309915463728969e-01
4.027680288094729333e-01
4.016846217230750637e-01
4.006164738914151369e-01
4.003570665608691681e-01
4.013183996093631078e-01
4.029816583758049076e-01
4.044160283211767903e-01
4.052705465865046874e-01
4.057588427381206841e-01
4.057588427381206841e-01
4.052095095675526948e-01
4.045228431043427775e-01
4.044007690664387922e-01
4.052095095675526948e-01
4.059877315591907121e-01
4.065065462202826496e-01
4.077120273445844489e-01
4.089327677236244130e-01
4.089632862331003538e-01
4.083834345530563681e-01
4.078341013824884898e-01
4.069490646076845963e-01
4.057283242286446323e-01
4.048432874538407389e-01
4.050111392559587742e-01
4.061403241065706382e-01
4.070406201361125853e-01
4.072847682119205004e-01
4.075441755424664692e-01
4.074526200140385357e-01
4.061555833613086364e-01
4.042939542832728050e-01
4.031189916684469465e-01
4.030426953947569002e-01
4.033326212347788653e-01
4.038819544053468547e-01
4.052247688222907485e-01
4.065370647297585904e-01
4.066591387676625757e-01
4.057741019928586823e-01
4.048280281991027407e-01
4.039429914242987918e-01
4.029358806115909131e-01
4.022186956389049994e-01
4.023102511673329329e-01
4.031342509231848892e-01
4.044312875759148440e-01
4.060945463423565882e-01
4.072847682119205004e-01
4.069490646076845963e-01
4.058198797570726768e-01
4.051484725486007021e-01
4.047212134159368091e-01
4.043092135380107477e-01
4.045533616138187738e-01
4.055604724265267080e-01
4.067506942960905647e-01
4.078035828730124934e-01
4.085360271004364052e-01
4.084597308267464144e-01
4.074221015045624839e-01
4.061098055970946419e-01
4.049348429822687834e-01
4.044770653401287830e-01
4.051179540391247613e-01
4.060487685781426492e-01
4.071474349192785169e-01
4.085665456099124571e-01
4.094210638752402986e-01
4.089480269783624111e-01
4.072695089571825022e-01
4.054078798791467264e-01
4.044618060853907293e-01
4.043244727927488014e-01
4.046296578875087646e-01
4.057435834833826860e-01
4.073915829950865430e-01
4.087801751762443758e-01
4.091769157994323280e-01
4.087801751762443758e-01
4.078035828730124934e-01
4.059572130497146603e-01
4.044312875759148440e-01
4.043855098117007385e-01
4.052400280770287466e-01
4.062166203802606290e-01
4.071779534287545133e-01
4.083223975341044309e-01
4.092532120731223189e-01
4.093295083468123652e-01
4.084139530625324199e-01
4.070863979003265798e-01
4.066286202581865794e-01
4.071779534287545133e-01
4.078798791467024842e-01
4.092837305825983152e-01
4.117404705954161304e-01
4.140446180608539084e-01
4.154026917325358004e-01
4.159520249031037342e-01
4.161503952146976548e-01
4.164250617999816773e-01
4.172185430463576372e-01
4.184545426801354884e-01
4.194463942381054244e-01
4.202703939939573252e-01
4.215216528824732301e-01
4.230475783562730463e-01
4.246650593585009070e-01
4.269234290597247461e-01
4.293191320535904576e-01
4.297463911862544617e-01
4.272896511734367020e-01
4.231849116489150298e-01
4.193853572191534318e-01
4.167607654042176368e-01
4.147160252693258831e-01
4.127018036439100146e-01
4.103213599047822457e-01
4.072542497024445041e-01
4.033631397442548616e-01
3.988464003418072945e-01
3.941923276467177439e-01
3.900112918485060809e-01
3.871120334482864300e-01
3.856624042481764936e-01
3.854335154271065211e-01
3.861812189092684311e-01
3.870662556840723800e-01
3.875087740714743823e-01
3.872646259956664117e-01
3.858302560502944734e-01
3.836481826227606806e-01
3.819238868373668883e-01
3.818018127994628474e-01
3.833277382732627192e-01
3.855708487197485046e-01
3.879512924588763290e-01
3.900875881221961272e-01
3.920102542191839512e-01
3.933988464003418395e-01
3.934293649098178358e-01
3.923612170781579089e-01
3.914456617938779637e-01
3.917203283791619861e-01
3.930173650318918299e-01
3.946501052888576888e-01
3.965575121311075146e-01
3.988769188512833463e-01
4.003723258156071663e-01
4.001434369945372493e-01
3.983886226996672941e-01
3.957182531205176157e-01
3.936124759666738138e-01
3.927121799371318667e-01
3.924680318613238961e-01
3.931394390697958152e-01
3.953215124973296635e-01
3.980376598406933919e-01
3.995635853144932637e-01
3.990752891628772669e-01
3.963133640552995440e-01
3.923154393139439144e-01
3.885006256294442628e-01
3.850062562944425726e-01
3.830988494521927468e-01
3.838618121890927104e-01
3.857997375408184770e-01
3.874935148167363286e-01
3.884548478652302683e-01
3.884090701010162183e-01
3.869289223914303966e-01
3.839838862269966402e-01
3.806421094393749316e-01
3.784142582476271444e-01
3.780632953886531866e-01
3.791924802392651062e-01
3.811456648457289265e-01
3.837244788964506714e-01
3.863643299661244646e-01
3.879207739494003326e-01
3.879207739494003326e-01
3.865016632587664480e-01
3.844416638691366406e-01
3.830835901974547486e-01
3.832056642353587339e-01
3.847315897091586057e-01
3.868831446272164021e-01
3.892330698568681746e-01
3.908352916043580372e-01
3.903164769432660997e-01
3.878749961851863381e-01
3.846552934354686148e-01
3.812219611194189173e-01
3.779412213507492568e-01
3.758049256874294031e-01
3.757286294137394678e-01
3.772850733970152803e-01
3.794061098055970804e-01
3.807031464583269798e-01
3.798181096835230308e-01
3.765678884243293112e-01
3.715018158513138657e-01
3.656422620319223493e-01
3.605151524399548002e-01
3.568987090670491247e-01
3.547471541489913283e-01
3.539078951384014293e-01
3.538773766289254330e-01
3.536027100436415216e-01
3.523056733909115668e-01
3.498184148686178108e-01
3.460951567125461481e-01
3.417004913480025663e-01
3.389690847499008397e-01
3.393200476088747974e-01
3.415326395458845865e-01
3.440656758323923370e-01
3.463240455336161205e-01
3.481551561021759555e-01
3.496505630664998310e-01
3.510696737571337156e-01
3.521988586077456351e-01
3.527787102877895653e-01
3.529160435804315488e-01
3.535874507889034679e-01
3.557695242164372607e-01
3.583635975218970038e-01
3.599505600146488682e-01
3.599963377788628627e-01
3.577837458418530736e-01
3.534348582415234863e-01
3.478347117526780496e-01
3.423871578112124836e-01
3.386638996551408209e-01
3.370159001434370194e-01
3.370159001434370194e-01
3.382671590319528687e-01
3.400067140720847148e-01
3.410443433942686453e-01
3.409222693563646045e-01
3.402356028931546317e-01
3.392132328257087548e-01
3.376110110782189477e-01
3.361919003875850631e-01
3.358409375286111054e-01
3.364970854823450264e-01
3.380230109561448426e-01
3.405865657521286449e-01
3.429517502365184711e-01
3.432569353312784344e-01
3.422040467543565612e-01
3.410443433942686453e-01
3.397167882320626942e-01
3.383434553056428595e-01
3.375347148045289569e-01
3.377483443708609312e-01
3.391674550614948158e-01
3.412884914700765604e-01
3.428754539628284803e-01
3.435316019165624013e-01
3.434247871333963587e-01
3.424024170659504818e-01
3.408307138279366155e-01
3.395947141941587644e-01
3.392284920804468085e-01
3.394268623920407291e-01
3.402813806573687372e-01
3.419598986785485351e-01
3.428449354533524285e-01
3.418225653859065516e-01
3.400830103457747056e-01
3.385113071077608948e-01
3.368327890865809859e-01
3.353068636127811697e-01
3.346964934232611877e-01
3.352763451033051734e-01
3.368022705771050451e-01
3.388622699667348526e-01
3.407696768089846229e-01
3.414258247627185439e-01
3.405865657521286449e-01
3.392742698446607474e-01
3.378246406445509220e-01
3.361461226233711241e-01
3.352610858485671197e-01
3.359935300759911425e-01
3.380840479750968908e-01
3.405407879879146504e-01
3.421430097354045130e-01
3.425397503585924652e-01
3.423718985564744854e-01
3.418836024048585442e-01
3.403424176763206743e-01
3.382061220130009316e-01
3.372905667287209308e-01
3.382366405224768169e-01
3.401745658742026945e-01
3.422040467543565612e-01
3.439893795587023462e-01
3.448896755882442933e-01
3.441724906155583241e-01
3.424329355754265336e-01
3.409527878658406563e-01
3.399914548173467721e-01
3.391369365520187640e-01
3.391521958067568177e-01
3.408307138279366155e-01
3.428296761986144303e-01
3.435773796807763403e-01
3.433027130954924289e-01
3.424024170659504818e-01
3.412427137058626214e-01
3.401287881099887556e-01
3.391369365520187640e-01
3.387859736930448618e-01
3.393200476088747974e-01
3.401898251289406927e-01
3.411358989226965788e-01
3.421887874996185075e-01
3.429975280007324656e-01
3.429212317270424193e-01
3.417615283669546145e-01
3.401287881099887556e-01
3.386944181646168173e-01
3.376567888424328867e-01
3.378551591540269183e-01
3.398541215247047331e-01
3.420514542069765240e-01
3.429059724723044211e-01
3.427838984344004913e-01
3.423413800469984891e-01
3.412121951963865696e-01
3.393658253730887364e-01
3.375804925687428959e-01
3.368327890865809859e-01
3.382213812677388742e-01
3.407849360637226765e-01
3.431043427838983972e-01
3.453016754661702437e-01
3.468276009399700599e-01
3.466139713736380856e-01
3.449507126071962859e-01
3.431806390575884436e-01
3.422803430280465520e-01
3.426160466322824560e-01
3.439741203039643480e-01
3.455458235419782143e-01
3.472243415631580676e-01
3.492233039338358824e-01
3.505050813318277281e-01
3.502609332560198130e-01
3.489638966032899137e-01
3.475753044221320254e-01
3.469496749778740452e-01
3.474379711294900419e-01
3.485061189611499133e-01
3.496505630664998310e-01
3.511154515213476546e-01
3.529007843256934951e-01
3.537705618457594459e-01
3.530228583635975359e-01
3.513138218329416862e-01
3.494827112643817957e-01
3.483382671590319890e-01
3.482009338663900055e-01
3.491470076601458916e-01
3.509933774834437248e-01
3.528244880520035043e-01
3.539078951384014293e-01
3.539994506668294183e-01
3.529313028351695469e-01
3.513290810876796844e-01
3.498031556138798126e-01
3.485824152348399041e-01
3.481551561021759555e-01
3.488113040559099320e-01
3.502609332560198130e-01
3.519394512771996109e-01
3.527787102877895653e-01
3.521988586077456351e-01
3.506271553697317689e-01
3.483382671590319890e-01
3.458052308725241830e-01
3.439741203039643480e-01
3.432416760765404362e-01
3.434400463881344123e-01
3.443098239082003076e-01
3.457441938535721904e-01
3.468581194494461117e-01
3.466902676473280764e-01
3.456526383251442014e-01
3.440198980681783425e-01
3.417920468764304998e-01
3.401135288552507019e-01
3.397473067415387460e-01
3.401440473647266982e-01
3.411969359416485714e-01
3.430127872554704638e-01
3.445692312387463319e-01
3.446913052766502616e-01
3.433484908597063678e-01
3.417615283669546145e-01
3.408154545731986174e-01
3.402661214026306835e-01
3.395184179204687736e-01
3.391521958067568177e-01
3.401287881099887556e-01
3.418225653859065516e-01
3.429517502365184711e-01
3.428601947080904822e-01
3.421430097354045130e-01
3.411511581774346324e-01
3.392895290993987456e-01
3.371837519455549437e-01
3.360698263496811333e-01
3.362987151707510503e-01
3.377178258613849349e-01
3.396862697225867533e-01
3.414105655079806012e-01
3.418378246406446053e-01
3.406476027710806931e-01
3.394726401562547791e-01
3.386333811456648246e-01
3.375957518234809496e-01
3.371532334360790029e-01
3.375194555497909588e-01
3.387401959288308118e-01
3.408917508468886637e-01
3.428907132175664785e-01
3.435621204260383976e-01
3.432416760765404362e-01
3.428449354533524285e-01
3.423108615375224928e-01
3.420361949522385259e-01
3.431348612933743936e-01
3.454390087588122271e-01
3.479567857905819794e-01
3.501235999633778295e-01
3.516495254371776458e-01
3.527024140140995745e-01
3.533890804773094918e-01
3.529770805993834859e-01
3.517715994750816311e-01
3.507492294076356987e-01
3.505050813318277281e-01
3.515732291634876550e-01
3.532059694204535139e-01
3.547471541489913283e-01
3.563798944059571872e-01
3.577837458418530736e-01
3.579515976439710534e-01
3.565477462080752225e-01
3.548997466963713099e-01
3.539231543931393720e-01
3.529770805993834859e-01
3.523667104098636149e-01
3.532670064394054510e-01
3.555253761406293456e-01
3.576616718039490883e-01
3.591265602587969674e-01
3.601641895809808425e-01
3.599353007599108700e-01
3.587755973998230097e-01
3.583788567766350019e-01
3.591418195135349656e-01
3.609118930631428079e-01
3.637806329538865180e-01
3.672902615436262619e-01
3.704031495101778870e-01
3.724326303903316981e-01
3.731498153630176673e-01
3.728446302682577040e-01
3.713644825586718268e-01
3.690603350932340487e-01
3.673818170720541954e-01
3.668630024109622578e-01
3.675496688741721751e-01
3.693350016785180157e-01
3.713492233039338286e-01
3.722495193334757757e-01
3.705099642933438742e-01
3.663747062593462611e-01
3.614307077242347455e-01
3.565324869533371688e-01
3.521683400982695833e-01
3.486434522537919523e-01
3.461256752220221999e-01
3.447370830408642561e-01
3.436384166997283329e-01
3.417767876216925571e-01
3.388470107119967989e-01
3.354441969054230976e-01
3.324533829767754023e-01
3.299813837092196445e-01
3.280434583574938223e-01
3.269447920163578991e-01
3.268837549974059620e-01
3.276924954985198646e-01
3.285317545091097635e-01
3.285470137638478172e-01
3.275093844416638866e-01
3.255256813257240145e-01
3.232825708792382291e-01
3.213904232917264014e-01
3.202459791863765393e-01
3.202612384411145374e-01
3.210242011780144455e-01
3.221533860286263651e-01
3.234199041718802126e-01
3.242286446729942262e-01
3.238166447950681648e-01
3.221686452833643632e-01
3.200170903653065668e-01
3.182927945799127190e-01
3.177282021546067314e-01
3.184606463820306987e-01
3.197576830347605426e-01
3.206579790643024896e-01
3.211157567064424900e-01
3.214819788201544459e-01
3.213446455275124070e-01
3.201696829126865484e-01
3.182164983062227281e-01
3.163548692281868968e-01
3.152714621417890273e-01
3.153172399060029663e-01
3.163548692281868968e-01
3.175756096072267498e-01
3.182164983062227281e-01
3.177587206640827278e-01
3.165837580492568692e-01
3.151799066133609828e-01
3.136539811395611110e-01
3.126468703268532323e-01
3.119907223731192558e-01
3.113803521835993848e-01
3.116092410046693018e-01
3.129062776573992566e-01
3.141575365459151059e-01
3.145084994048890636e-01
3.140354625080111206e-01
3.130588702047791827e-01
3.114108706930753812e-01
3.091677602465895403e-01
3.077181310464797148e-01
3.074129459517196961e-01
3.073061311685537089e-01
3.072450941496017163e-01
3.076570940275277222e-01
3.082522049623095950e-01
3.083132419812616432e-01
3.073671681875057016e-01
3.055055391094699258e-01
3.035523545030060499e-01
3.021942808313242135e-01
3.017059846797082168e-01
3.022400585955382080e-01
3.031098361156041032e-01
3.033692434461500720e-01
3.030793176061281069e-01
3.027893917661061418e-01
3.022553178502762061e-01
3.012024292733542774e-01
3.000885036774804115e-01
2.997375408185064538e-01
3.006073183385723491e-01
3.020264290292062337e-01
3.037202063051240852e-01
3.058107242042298335e-01
3.072603534043397144e-01
3.072908719138157108e-01
3.063753166295358210e-01
3.051850947599719088e-01
3.040864284188360411e-01
3.035828730124821018e-01
3.038880581072420095e-01
3.047883541367839566e-01
3.063142796105838284e-01
3.080690939054536170e-01
3.091830195013275384e-01
3.089999084444715605e-01
3.080843531601916707e-01
3.068178350169377677e-01
3.052003540147099070e-01
3.041779839472640301e-01
3.047273171178319084e-01
3.065126499221778045e-01
3.082522049623095950e-01
3.097170934171575296e-01
3.109073152867214418e-01
3.112430188909573459e-01
3.105258339182714322e-01
3.090151676992096141e-01
3.074892422254096869e-01
3.066347239600817898e-01
3.066042054506057934e-01
3.076570940275277222e-01
3.097018341624194759e-01
3.117007965330972907e-01
3.131199072237312309e-01
3.136844996490371074e-01
3.126316110721152342e-01
3.104495376445814414e-01
3.085726493118076119e-01
3.076418347727897240e-01
3.077639088106936538e-01
3.088320566423535807e-01
3.107394634846034065e-01
3.129520554216131956e-01
3.146305734427930489e-01
3.150883510849329938e-01
3.140659810174871169e-01
3.122959074678792746e-01
3.107242042298654083e-01
3.099307229834895039e-01
3.103427228614154543e-01
3.118228705710013315e-01
3.136997589037751610e-01
3.156071657460249313e-01
3.169042023987548862e-01
3.172551652577287884e-01
3.168736838892788343e-01
3.154850917081210016e-01
3.135624256111331776e-01
3.123874629963072636e-01
3.123569444868312672e-01
3.134556108279671904e-01
3.152104251228369791e-01
3.167516098513749045e-01
3.175603503524888072e-01
3.171788689840387976e-01
3.160649433881649317e-01
3.148747215186010195e-01
3.134250923184911941e-01
3.122959074678792746e-01
3.118839075899533242e-01
3.121127964110232966e-01
3.136234626300851147e-01
3.158360545670949038e-01
3.176519058809167406e-01
3.187353129673146657e-01
3.182927945799127190e-01
3.163853877376629486e-01
3.145695364238410008e-01
3.135319071016571257e-01
3.133945738090151423e-01
3.142490920743430949e-01
3.157292397839289166e-01
3.173924985503707719e-01
3.187353129673146657e-01
3.189642017883846936e-01
3.178350169377727186e-01
3.161259804071168689e-01
3.145084994048890636e-01
3.136692403942991647e-01
3.141270180364390541e-01
3.153477584154790181e-01
3.171025727103488068e-01
3.191015350810266216e-01
3.203375347148044727e-01
3.202307199316385411e-01
3.191320535905026179e-01
3.176213873714407998e-01
3.160649433881649317e-01
3.152256843775750328e-01
3.156682027649769795e-01
3.169194616534928288e-01
3.183996093630787061e-01
3.199102755821405797e-01
3.211004974517044364e-01
3.212530899990844735e-01
3.200170903653065668e-01
3.179113132114627649e-01
3.160802026429029299e-01
3.149967955565050048e-01
3.146916104617450416e-01
3.155613879818109924e-01
3.172551652577287884e-01
3.186284981841486785e-01
3.191320535905026179e-01
3.194982757042145738e-01
3.195135349589526275e-01
3.181402020325327373e-01
3.160649433881649317e-01
3.147068697164830398e-01
3.147221289712210379e-01
3.159886471144749409e-01
3.176061281167027461e-01
3.189489425336466399e-01
3.196508682515945554e-01
3.195440534684286238e-01
3.190404980620746844e-01
3.183233130893887153e-01
3.174230170598468237e-01
3.164616840113528839e-01
3.159733878597368872e-01
3.165684987945188711e-01
3.181402020325327373e-01
3.197729422894985962e-01
3.202612384411145374e-01
3.197424237800225999e-01
3.193456831568346477e-01
3.186590166936246749e-01
3.167516098513749045e-01
3.149815363017670622e-01
3.149967955565050048e-01
3.164922025208288248e-01
3.183690908536027098e-01
3.199865718558305705e-01
3.212225714896084772e-01
3.216498306222724257e-01
3.206884975737784860e-01
3.187353129673146657e-01
3.169804986724448215e-01
3.163396099734488986e-01
3.168279061250648954e-01
3.180639057588427465e-01
3.198187200537125352e-01
3.218939786980803408e-01
3.235114597003082570e-01
3.237861262855922240e-01
3.228095339823602861e-01
3.213446455275124070e-01
3.200781273842585595e-01
3.191015350810266216e-01
3.185216834009826914e-01
3.189489425336466399e-01
3.206427198095644915e-01
3.228553117465742806e-01
3.240913113803521872e-01
3.239234595782342074e-01
3.231910153508102956e-01
3.222907193212683485e-01
3.215277565843683849e-01
3.215430158391064386e-01
3.219397564622943353e-01
3.232215338602862920e-01
3.260750144962920039e-01
3.298593096713156592e-01
3.333841975157933457e-01
3.358867152928250999e-01
3.376720480971709404e-01
3.391216772972808213e-01
3.401593066194646964e-01
3.406628620258186357e-01
3.408001953184606747e-01
3.407391582995086265e-01
3.402661214026306835e-01
3.393658253730887364e-01
3.379619739371929055e-01
3.356273079622791866e-01
3.323465681936094152e-01
3.285622730185857598e-01
3.251136814477981196e-01
3.229163487655262732e-01
3.224890896328623247e-01
3.237708670308542258e-01
3.255714590899380645e-01
3.271889400921659252e-01
3.288674581133457231e-01
3.298440504165776610e-01
3.293710135196996625e-01
3.281502731406598650e-01
3.268684957426679083e-01
3.257698294015320406e-01
3.256630146183660535e-01
3.271279030732138771e-01
3.294015320291757143e-01
3.312021240882595530e-01
3.323770867030854115e-01
3.329416791283913990e-01
3.323465681936094152e-01
3.304086428418835930e-01
3.281807916501357503e-01
3.273720511490218477e-01
3.279061250648518389e-01
3.287301248207037951e-01
3.300424207281716371e-01
3.319956053346355129e-01
3.337351603747672479e-01
3.340250862147892130e-01
3.327433088167973674e-01
3.311868648335215548e-01
3.301034577471235743e-01
3.296761986144596812e-01
3.301187170018616279e-01
3.313547166356395346e-01
3.329874568926053380e-01
3.348185674611651730e-01
3.363902706991789837e-01
3.369243446150089749e-01
3.361003448591570741e-01
3.342692342905972391e-01
3.324076052125614078e-01
3.315530869472335107e-01
3.320261238441113982e-01
3.333689382610552920e-01
3.352305673390911789e-01
3.374584185308389661e-01
3.392895290993987456e-01
3.398388622699667905e-01
3.388927884762107934e-01
3.368938261055329786e-01
3.347727896969511785e-01
3.334452345347452829e-01
3.334604937894833365e-01
3.347575304422132358e-01
3.364818262276070282e-01
3.380077517014069000e-01
3.391521958067568177e-01
3.397625659962767442e-01
3.397930845057526850e-01
3.387401959288308118e-01
3.369853816339609676e-01
3.359935300759911425e-01
3.359630115665150907e-01
3.366496780297250635e-01
3.384197515793328503e-01
3.407696768089846229e-01
3.426313058870204542e-01
3.435163426618244031e-01
3.433027130954924289e-01
3.423108615375224928e-01
3.417004913480025663e-01
3.418836024048585442e-01
3.424939725943785263e-01
3.438673055207983054e-01
3.463087862788781224e-01
3.492996002075258732e-01
3.519394512771996109e-01
3.536637470625934587e-01
3.543961912900173705e-01
3.548234504226813191e-01
3.555558946501052309e-01
3.567461165196691431e-01
3.586993011261330189e-01
3.613238929410687028e-01
3.642231513412884647e-01
3.670918912320321748e-01
3.696401867732779789e-01
3.714407788323618176e-01
3.719901120029297514e-01
3.708914456617938837e-01
3.688619647816400726e-01
3.673970763267921935e-01
3.668324839014862615e-01
3.668477431562242597e-01
3.678853724784081902e-01
3.696707052827539752e-01
3.712729270302438378e-01
3.718375194555497698e-01
3.705099642933438742e-01
3.674428540910061880e-01
3.632770775475325786e-01
3.592944120609149472e-01
3.571275978881191526e-01
3.568987090670491247e-01
3.576311532944730920e-01
3.587298196356090152e-01
3.594470046082949843e-01
3.586993011261330189e-01
3.559526352732932386e-01
3.517258217108676366e-01
3.473311563463240548e-01
3.433027130954924289e-01
3.398998992889187276e-01
3.380535294656208944e-01
3.380840479750968908e-01
3.388927884762107934e-01
3.391674550614948158e-01
3.385113071077608948e-01
3.369396038697470286e-01
3.345286416211432079e-01
3.320108645893734556e-01
3.299661244544816463e-01
3.287148655659657415e-01
3.290353099154637584e-01
3.308511612292855397e-01
3.330637531662953288e-01
3.346812341685231895e-01
3.351390118106631344e-01
3.341166417432172575e-01
3.317056794946135478e-01
3.289132358775597731e-01
3.270516067995238862e-01
3.266701254310739877e-01
3.276619769890438127e-01
3.293862727744377161e-01
3.314462721640674681e-01
3.339640491958372759e-01
3.361308633686330705e-01
3.361919003875850631e-01
3.339640491958372759e-01
3.313852351451155309e-01
3.300576799829096353e-01
3.302713095492416095e-01
3.323007904293954207e-01
3.362681966612750539e-01
3.412884914700765604e-01
3.457594531083102440e-01
3.484756004516739170e-01
3.492080446790978843e-01
3.483230079042939353e-01
3.458510086367381775e-01
3.428449354533524285e-01
3.407849360637226765e-01
3.400830103457747056e-01
3.400982696005127037e-01
3.398846400341807295e-01
3.394268623920407291e-01
3.385570848719748338e-01
3.363597521897030984e-01
3.327890865810113619e-01
3.287606433301797360e-01
3.254646443067720774e-01
3.236945707571642350e-01
3.228858302560503324e-01
3.225959044160283673e-01
3.233130893887142254e-01
3.245033112582781376e-01
3.247627185888241064e-01
3.233130893887142254e-01
3.203375347148044727e-01
3.168126468703268417e-01
3.137150181585131592e-01
3.120975371562852430e-01
3.122501297036652801e-01
3.135624256111331776e-01
3.152409436323129754e-01
3.163090914639729023e-01
3.163701284829248950e-01
3.152714621417890273e-01
3.131046479689931772e-01
3.105868709372234249e-01
3.086642048402356009e-01
3.078249458296457020e-01
3.080843531601916707e-01
3.093661305581835164e-01
3.114871669667653720e-01
3.138218329416791463e-01
3.152562028870509736e-01
3.153935361796929571e-01
3.145542771691030581e-01
3.130893887142551790e-01
3.116855372783592926e-01
3.111819818720053532e-01
3.125095370342112489e-01
3.157750175481429666e-01
3.201849421674245466e-01
3.254341257972960810e-01
3.313241981261635383e-01
3.362834559160131076e-01
3.392132328257087548e-01
3.406323435163426394e-01
3.410901211584826398e-01
3.414410840174565975e-01
3.425702688680685171e-01
3.443098239082003076e-01
3.462324900051881316e-01
3.477736747337260015e-01
3.480636005737479666e-01
3.463698232978301150e-01
3.426923429059724469e-01
3.379161961729789665e-01
3.330637531662953288e-01
3.288216803491317286e-01
3.258613849299600296e-01
3.246253852961821229e-01
3.244270149845881468e-01
3.237861262855922240e-01
3.217108676412244184e-01
3.181554612872707355e-01
3.134403515732291368e-01
3.081301309244056097e-01
3.032776879177220830e-01
2.998596148564103836e-01
2.988830225531784457e-01
2.996917630542924593e-01
3.007751701406903844e-01
3.019043549913022484e-01
3.027588732566301455e-01
3.023316141239661414e-01
3.003479110080263803e-01
2.976622821741386482e-01
2.954039124729148091e-01
2.941679128391369580e-01
2.941221350749229080e-01
2.952970976897488775e-01
2.974639118625446166e-01
2.998290963469343873e-01
3.012634662923062701e-01
3.006225775933103472e-01
2.983031708731345155e-01
2.961516159550767191e-01
2.947782830286568845e-01
2.938474684896389966e-01
2.938016907254249466e-01
2.951902829065828349e-01
2.970061342204046717e-01
2.982573931089205765e-01
2.990356151005584828e-01
2.985168004394664898e-01
2.963652455214086934e-01
2.937559129612109521e-01
2.917111728263191428e-01
2.909024323252052402e-01
2.914059877315592351e-01
2.928556169316690605e-01
2.949766533402508606e-01
2.967619861445967011e-01
2.971892452772606497e-01
2.962126529740287673e-01
2.942594683675649470e-01
2.919553209021271689e-01
2.899258400219733578e-01
2.892544328135013831e-01
2.899105807672353041e-01
2.912228766747032016e-01
2.930997650074770311e-01
2.948545793023469308e-01
2.959837641529587948e-01
2.960753196813867283e-01
2.948850978118228716e-01
2.930692464980010348e-01
2.912686544389171961e-01
2.903530991546372508e-01
2.909939878536332292e-01
2.926725058748130270e-01
2.946714682454908418e-01
2.966093935972167195e-01
2.981200598162785376e-01
2.986541337321085288e-01
2.980132450331125504e-01
2.968840601825006309e-01
2.954191717276528073e-01
2.938779869991149929e-01
2.935422833948789778e-01
2.946409497360149010e-01
2.965178380687886750e-01
2.985015411847285471e-01
2.995239112521744240e-01
2.992645039216284553e-01
2.982879116183965729e-01
2.963652455214086934e-01
2.938932462538529911e-01
2.927335428937650752e-01
2.935880611590930278e-01
2.953581347087008147e-01
2.967925046540726974e-01
2.977080599383525872e-01
2.982116153447065821e-01
2.977385784478286390e-01
2.962279122287667099e-01
2.942136906033509525e-01
2.923520615253151211e-01
2.914975432599871685e-01
2.919400616473891152e-01
2.934659871211889870e-01
2.956633198034608334e-01
2.973418378246406313e-01
2.975096896267586666e-01
2.966856898709067103e-01
2.953733939634388683e-01
2.933133945738090054e-01
2.914517654957732296e-01
2.905972472304452214e-01
2.904599139378032380e-01
2.918942838831751763e-01
2.945493942075869120e-01
2.965178380687886750e-01
2.972502822962126423e-01
2.971129490035706588e-01
2.962736899929807599e-01
2.947782830286568845e-01
2.929776909695730458e-01
2.916196172978911538e-01
2.914670247505111722e-01
2.926114688558610899e-01
2.943815424054688767e-01
2.959227271340067467e-01
2.967619861445967011e-01
2.968535416730247456e-01
2.959990234076967375e-01
2.944273201696829267e-01
2.925504318369090972e-01
2.913754692220832387e-01
2.919400616473891152e-01
2.937559129612109521e-01
2.957548753318887669e-01
2.974486526078066184e-01
2.983794671468245618e-01
2.984862819299904935e-01
2.976317636646625964e-01
2.956480605487227797e-01
2.934202093569749925e-01
2.921079134495071505e-01
2.920316171758171597e-01
2.930845057527390329e-01
2.952513199255348275e-01
2.976928006836146445e-01
2.990966521195104755e-01
2.990966521195104755e-01
2.980132450331125504e-01
2.963042085024567007e-01
2.947477645191808882e-01
2.941679128391369580e-01
2.947172460097048918e-01
2.962584307382427617e-01
2.987914670247505122e-01
3.014618366039002462e-01
3.030182805871761142e-01
3.030945768608661051e-01
3.017517624439222113e-01
2.995849482711264722e-01
2.978759117404706225e-01
2.973265785699026886e-01
2.978148747215186298e-01
2.990966521195104755e-01
3.009735404522843050e-01
3.032013916440320922e-01
3.050782799768059217e-01
3.055207983642078684e-01
3.044831690420239934e-01
3.030487990966521106e-01
3.021027253028962245e-01
3.019959105197301819e-01
3.024079103976561878e-01
3.034302804651021201e-01
3.052766502883999533e-01
3.071687978759117255e-01
3.081606494338816615e-01
3.081453901791436634e-01
3.072450941496017163e-01
3.055513168736838647e-01
3.035523545030060499e-01
3.022553178502762061e-01
3.023468733787041951e-01
3.035218359935300536e-01
3.055970946378978592e-01
3.082522049623095950e-01
3.104495376445814414e-01
3.105258339182714322e-01
3.082522049623095950e-01
3.057191686758019000e-01
3.041474654377879783e-01
3.034150212103640665e-01
3.038422803430280150e-01
3.058107242042298335e-01
3.085879085665456101e-01
3.109988708151493753e-01
3.124790185247352525e-01
3.124027222510452617e-01
3.109225745414593844e-01
3.093356120487075200e-01
3.082979827265236450e-01
3.077028717917416611e-01
3.079165013580736354e-01
3.095797601245155461e-01
3.128299813837092658e-01
3.166600543229468601e-01
3.195135349589526275e-01
3.209326456495864566e-01
3.208410901211584676e-01
3.198797570726645834e-01
3.189947202978606344e-01
3.181096835230567410e-01
3.178502761925107722e-01
3.186895352031006712e-01
3.200628681295205613e-01
3.211615344706564290e-01
3.210089419232764474e-01
3.194372386852626367e-01
3.170262764366588160e-01
3.140812402722251151e-01
3.111514633625293569e-01
3.091067232276375476e-01
3.088015381328775844e-01
3.102206488235114690e-01
3.123416852320932691e-01
3.144779808954130673e-01
3.159581286049989446e-01
3.156376842555009832e-01
3.139591662343211298e-01
3.120822779015473003e-01
3.101138340403454818e-01
3.087252418591875380e-01
3.091372417371135439e-01
3.110141300698874289e-01
3.135929441206091739e-01
3.162938322092349042e-01
3.179723502304147020e-01
3.180639057588427465e-01
3.169042023987548862e-01
3.150883510849329938e-01
3.133030182805872088e-01
3.120212408825953077e-01
3.114413892025513220e-01
3.124485000152592562e-01
3.151036103396709920e-01
3.174993133335367590e-01
3.187810907315287157e-01
3.192693868831446569e-01
3.184453871272927006e-01
3.159733878597368872e-01
3.127536851100192750e-01
3.106631672109134157e-01
3.106936857203894120e-01
3.124332407605212580e-01
3.152562028870509736e-01
3.179723502304147020e-01
3.195898312326426183e-01
3.205206457716605062e-01
3.212225714896084772e-01
3.215430158391064386e-01
3.216498306222724257e-01
3.223517563402203412e-01
3.240302743614001946e-01
3.264412366100040153e-01
3.291726432081057419e-01
3.318430127872554758e-01
3.341624195074312520e-01
3.353984191412091587e-01
3.348643452253792230e-01
3.334452345347452829e-01
3.325601977599413894e-01
3.322550126651814262e-01
3.325907162694174413e-01
3.340098269600512704e-01
3.359630115665150907e-01
3.376873073519089385e-01
3.387859736930448618e-01
3.389080477309487915e-01
3.379772331919309036e-01
3.364055299539170374e-01
3.346201971495711969e-01
3.330179754020813898e-01
3.323923459578233541e-01
3.332621234778893049e-01
3.351390118106631344e-01
3.369090853602709768e-01
3.374126407666249716e-01
3.365581225012970190e-01
3.350169377727592046e-01
3.330484939115573306e-01
3.310647907956175140e-01
3.298898281807916000e-01
3.300119022186956408e-01
3.310342722861415732e-01
3.322702719199194243e-01
3.336130863368633181e-01
3.345286416211432079e-01
3.339182714316232814e-01
3.320108645893734556e-01
3.298287911618396628e-01
3.279061250648518389e-01
3.267159031952879267e-01
3.264717551194799561e-01
3.270058290353098918e-01
3.287911618396557323e-01
3.314157536545915272e-01
3.331705679494613714e-01
3.331858272041993696e-01
3.320261238441113982e-01
3.306527909176916191e-01
3.296456801049836849e-01
3.290505691702017010e-01
3.292947172460096716e-01
3.312631611072115456e-01
3.344523453474532171e-01
3.373668630024109216e-01
3.392590105899228048e-01
3.393810846278267901e-01
3.369701223792230249e-01
3.326975310525833729e-01
3.275856807153538774e-01
3.226111636707663100e-01
3.189947202978606344e-01
3.173009430219428384e-01
3.169347209082308270e-01
3.172551652577287884e-01
3.179723502304147020e-01
3.181096835230567410e-01
3.169804986724448215e-01
3.153019806512650236e-01
3.134098330637531959e-01
3.115787224951933054e-01
3.107547227393414047e-01
3.113345744193853348e-01
3.131199072237312309e-01
3.154240546891690089e-01
3.166905728324228564e-01
3.157444990386669703e-01
3.133182775353251515e-01
3.104800561540574377e-01
3.073366496780297052e-01
3.045442060609759860e-01
3.033539841914121293e-01
3.037965025788140760e-01
3.048799096652119456e-01
3.059327982421338743e-01
3.066957609790337824e-01
3.066957609790337824e-01
3.055665761284219184e-01
3.034913174840540573e-01
3.013702810754722572e-01
3.001190221869563524e-01
2.995239112521744240e-01
2.994323557237464906e-01
3.008362071596423215e-01
3.032471694082460867e-01
3.045747245704519823e-01
3.042542802209539654e-01
3.030335398419141124e-01
3.010803552354502921e-01
2.989745780816064902e-01
2.976622821741386482e-01
2.975096896267586666e-01
2.986999114963225233e-01
3.008514664143803197e-01
3.031556138798180977e-01
3.050325022125919272e-01
3.057954649494918908e-01
3.053529465620899441e-01
3.038575395977660132e-01
3.014618366039002462e-01
2.992950224311045071e-01
2.986541337321085288e-01
2.998748741111484373e-01
3.017975402081362613e-01
3.027130954924161510e-01
3.028504287850581345e-01
3.028504287850581345e-01
3.021942808313242135e-01
3.005767998290963527e-01
2.986236152226325324e-01
2.974028748435926239e-01
2.974944303720206129e-01
2.984099856563005027e-01
2.996459852900784093e-01
3.011413922544023403e-01
3.022705771050142043e-01
3.023316141239661414e-01
3.015381328775902925e-01
3.005157628101443046e-01
2.995086519974364814e-01
2.987151707510605214e-01
2.989745780816064902e-01
3.013092440565202645e-01
3.056886501663258482e-01
3.108615375225073918e-01
3.156529435102389258e-01
3.196203497421186146e-01
3.224433118686483302e-01
3.242286446729942262e-01
3.253273110141300939e-01
3.254188665425580274e-01
3.253883480330820310e-01
3.265633106479079451e-01
3.283639027069917837e-01
3.301187170018616279e-01
3.313852351451155309e-01
3.309427167577135287e-01
3.283944212164677801e-01
3.243049409466841615e-01
3.198034607989745925e-01
3.165074617755668784e-01
3.143253883480330857e-01
3.129673146763511937e-01
3.127536851100192750e-01
3.130436109500411845e-01
3.130283516953031864e-01
3.115787224951933054e-01
3.081301309244056097e-01
3.039033173619800632e-01
2.996154667806024685e-01
2.956022827845087853e-01
2.929776909695730458e-01
2.921536912137210895e-01
2.926572466200750844e-01
2.935422833948789778e-01
2.938627277443769392e-01
2.932523575548570127e-01
2.912228766747032016e-01
2.877590258491775077e-01
2.841578417310098303e-01
2.814569536423841001e-01
2.802667317728202434e-01
2.808465834528641736e-01
2.826471755119480123e-01
2.847376934110538160e-01
2.860805078279977098e-01
2.860652485732596562e-01
2.848292489394817495e-01
2.830133976256599682e-01
2.812433240760521813e-01
2.798699911496322357e-01
2.793816949980162945e-01
2.805871761223181493e-01
2.833033234656819332e-01
2.863399151585436786e-01
2.884914700766014750e-01
2.892391735587633850e-01
2.887813959166234401e-01
2.871181371501815294e-01
2.845698416089358362e-01
2.826776940214240086e-01
2.820825830866420803e-01
2.834559160130619704e-01
2.871639149143955794e-01
2.914517654957732296e-01
2.949003570665608698e-01
2.975554673909726056e-01
2.994018372142704387e-01
3.003173924985503840e-01
3.007904293954283270e-01
3.015533921323282351e-01
3.031403546250801551e-01
3.060548722800378596e-01
3.099765007477034984e-01
3.139439069795831316e-01
3.171941282387768513e-01
3.186742759483627285e-01
3.180639057588427465e-01
3.161717581713309189e-01
3.134250923184911941e-01
3.107394634846034065e-01
3.090914639728995494e-01
3.079927976317636262e-01
3.075197607348856832e-01
3.079927976317636262e-01
3.081911679433576579e-01
3.068178350169377677e-01
3.039948728904079966e-01
3.004699850459303656e-01
2.965483565782647268e-01
2.931302835169530274e-01
2.915128025147251667e-01
2.916348765526291520e-01
2.927182836390270770e-01
2.940000610370189227e-01
2.945036164433729176e-01
2.941679128391369580e-01
2.930082094790490421e-01
2.905514694662312825e-01
2.877895443586535040e-01
2.859736930448317227e-01
2.855769524216437150e-01
2.873165074617755610e-01
2.908261360515151939e-01
2.948393200476088771e-01
2.986388744773705306e-01
3.012939848017823219e-01
3.020874660481582263e-01
3.013397625659962609e-01
2.999206518753623762e-01
2.991119113742484736e-01
2.999053926206244336e-01
3.017517624439222113e-01
3.040406506546219911e-01
3.063600573747977673e-01
3.078554643391216983e-01
3.076570940275277222e-01
3.050630207220679790e-01
3.005920590838342954e-01
2.956938383129368297e-01
2.912076174199652034e-01
2.880489516891995283e-01
2.863704336680196749e-01
2.850123599963377830e-01
2.835016937772759094e-01
2.816858424634541280e-01
2.787408062990203717e-01
2.746513260292367531e-01
2.700735496078371378e-01
2.654042176580095891e-01
2.612537003692739779e-01
2.587817011017181645e-01
2.582476271858882289e-01
2.586596270638142347e-01
2.590868861964781833e-01
2.592852565080721594e-01
2.587206640827661719e-01
2.566606646931363644e-01
2.532731101413007169e-01
2.490462965788750871e-01
2.452162236396374095e-01
2.431257057405316335e-01
2.428815576647236629e-01
2.439039277321695676e-01
2.452620014038514318e-01
2.465132602923673089e-01
2.473830378124332596e-01
2.466505935850092923e-01
2.441633350627155363e-01
2.413556321909237912e-01
2.391735587633899984e-01
2.381817072054200901e-01
2.384411145359660589e-01
2.399822992645039288e-01
2.423017059846797050e-01
2.436292611468855729e-01
2.436750389110995951e-01
2.435987426374095766e-01
2.430799279763176390e-01
2.417828913235877397e-01
2.408825952940458481e-01
2.416150395214697599e-01
2.447584459974974647e-01
2.503585924863429568e-01
2.569200720236823887e-01
2.620929593798638768e-01
2.648701437421796534e-01
2.654499954222235836e-01
2.633289590136417835e-01
2.595294045838801300e-01
2.563249610889004049e-01
2.544938505203405699e-01
2.535325174718466856e-01
2.528458510086367128e-01
2.523117770928067771e-01
2.515945921201208635e-01
2.498092593157749952e-01
2.465132602923673089e-01
2.422864467299417068e-01
2.381969664601580883e-01
2.351603747672963429e-01
2.334208197271645246e-01
2.330393383587145706e-01
2.339854121524704844e-01
2.354808191167943321e-01
2.367778557695242314e-01
2.373424481948301634e-01
2.366100039674062239e-01
2.347025971251563981e-01
2.328409680471205945e-01
2.316202276680807137e-01
2.309335612048707687e-01
2.313913388470107135e-01
2.331614123966185281e-01
2.353434858241523486e-01
2.370830408642841669e-01
2.379528183843500899e-01
2.377239295632801452e-01
2.365184484389782349e-01
2.348246711630603833e-01
2.333445234534745061e-01
2.328714865565965630e-01
2.340159306619464530e-01
2.364116336558122200e-01
2.391430402539140021e-01
2.418744468520157287e-01
2.438428907132175749e-01
2.441785943174535345e-01
2.430951872310556372e-01
2.417065950498977489e-01
2.406842249824518720e-01
2.402722251045258939e-01
2.411267433698538187e-01
2.431562242500076299e-01
2.452009643848994669e-01
2.466200750755333237e-01
2.476119266335032043e-01
2.476424451429792284e-01
2.459639271217993750e-01
2.434614093447676209e-01
2.419049653614917528e-01
2.418744468520157287e-01
2.428662984099856648e-01
2.444074831385235069e-01
2.461622974333933789e-01
2.478408154545732045e-01
2.486800744651631034e-01
2.475508896145512117e-01
2.450636310922574557e-01
2.427594836268196776e-01
2.410657063509018261e-01
2.402264473403118994e-01
2.406689657277138461e-01
2.422406689657277401e-01
2.443769646290475106e-01
2.459791863765373454e-01
2.463454084902493568e-01
2.456892605365154081e-01
2.443617053743095124e-01
2.426374095889156646e-01
2.412793359172338281e-01
2.405011139255958941e-01
2.401959288308359031e-01
2.413708914456617893e-01
2.439649647511215602e-01
2.463454084902493568e-01
2.476882229071932229e-01
2.476882229071932229e-01
2.463911862544633236e-01
2.451094088564714502e-01
2.449110385448774740e-01
2.451246681112094483e-01
2.455671864986114228e-01
2.471694082461012576e-01
2.498397778252509915e-01
2.523270363475447753e-01
2.538987395855586415e-01
2.542344431897946011e-01
2.536698507644886691e-01
2.528000732444227183e-01
2.518539994506668322e-01
2.517319254127628469e-01
2.538377025666066489e-01
2.583697012237922697e-01
2.640614032410656953e-01
2.696615497299111874e-01
2.742088076418348064e-01
2.765129551072725289e-01
2.757499923703726208e-01
2.729575487533189015e-01
2.709738456373790849e-01
2.708670308542130978e-01
2.718131046479689839e-01
2.730185857722708942e-01
2.741172521134067619e-01
2.750480666524247053e-01
2.748039185766167347e-01
2.725760673848689475e-01
2.688070314645832903e-01
2.642139957884457324e-01
2.599108859523300841e-01
2.569353312784203869e-01
2.555467390972624986e-01
2.556230353709524894e-01
2.569811090426343259e-01
2.591784417249061723e-01
2.615131076998199466e-01
2.630085146641438221e-01
2.633289590136417835e-01
2.633899960325937761e-01
2.634205145420697725e-01
2.636951811273537394e-01
2.653584398937955946e-01
2.686849574266793050e-01
2.731254005554368813e-01
2.774132511368144760e-01
2.796716208380382596e-01
2.794732505264442834e-01
2.777947325052644301e-01
2.750022888882107108e-01
2.710043641468550812e-01
2.673116245002594149e-01
2.659688100833155211e-01
2.668538468581194145e-01
2.683492538224432900e-01
2.696310312204351911e-01
2.697836237678151727e-01
2.671132541886653833e-01
2.611011078218939963e-01
2.527695547349467220e-01
2.436750389110995951e-01
2.358775597399823121e-01
2.312997833185827246e-01
2.296517838068788675e-01
2.291329691457869022e-01
2.288735618152409335e-01
2.281258583330789957e-01
2.253944517349772692e-01
2.206335642567217037e-01
2.146671956541642556e-01
2.081057161168248515e-01
2.027344584490493318e-01
1.999877925962096070e-01
1.997283852656636383e-01
2.013916440321054657e-01
2.040009765923032348e-01
2.058931241798150624e-01
2.056794946134830604e-01
2.036347544785912789e-01
2.007202368236335188e-01
1.973632007812738398e-01
1.947080904568620763e-01
1.938840907010101755e-01
1.947538682210760985e-01
1.968901638843958690e-01
1.994689779351176417e-01
2.011322367015594970e-01
2.008117923520615078e-01
1.984313486129337389e-01
1.951353495895260526e-01
1.918698690755943626e-01
1.896877956480605698e-01
1.902829065828424704e-01
1.935026093325601937e-01
1.977294228949858235e-01
2.022309030426954202e-01
2.060151982177190477e-01
2.076021607104708844e-01
2.068544572283089744e-01
2.050080874050111135e-01
2.029633472701193320e-01
2.016357921079134641e-01
2.022614215521713887e-01
2.054048280281990935e-01
2.102725302896206738e-01
2.151707510605181950e-01
2.186803796502578834e-01
2.201300088503677643e-01
2.196264534440137972e-01
2.182683797723319330e-01
2.169408246101260374e-01
2.155064546647541823e-01
2.149418622394482226e-01
2.166356395153660741e-01
2.201300088503677643e-01
2.239448225348674160e-01
2.262031922360911718e-01
2.257454145939512269e-01
2.229224524674214836e-01
2.186346018860438889e-01
2.138279366435743289e-01
2.096926786095767159e-01
2.075411236915188917e-01
2.077852717673268623e-01
2.091433454390087543e-01
2.104251228370006555e-01
2.109897152623065875e-01
2.098452711569566975e-01
2.070223090304269542e-01
2.031769768364513062e-01
1.991485335856196803e-01
1.965392010254219113e-01
1.960051271095919756e-01
1.970274971770378802e-01
1.989043855098116820e-01
2.008880886257515264e-01
2.020172734763634181e-01
2.015137180700094510e-01
1.994994964445936381e-01
1.964934232612079168e-01
1.933957945493942066e-01
1.914578691976683844e-01
1.915799432355723697e-01
1.935026093325601937e-01
1.965544602801599094e-01
1.997131260109256401e-01
2.017883846552934179e-01
2.022156437879573943e-01
2.009796441541795153e-01
1.984313486129337389e-01
1.952116458632160434e-01
1.926023133030182743e-01
1.925107577745902854e-01
1.952421643726920120e-01
1.993926816614276509e-01
2.032380138554032989e-01
2.061067537461470367e-01
2.079073458052308754e-01
2.073732718894009397e-01
2.045045319986572019e-01
2.014374217963194602e-01
1.995757927182836289e-01
1.995452742088076603e-01
2.015442365794854751e-01
2.052674947355571100e-01
2.103030487990966424e-01
2.155064546647541823e-01
2.191686758018738523e-01
2.206183050019836778e-01
2.203436384166997108e-01
2.192449720755638432e-01
2.184362315744498850e-01
2.193212683492538340e-01
2.223883785515915479e-01
2.266457106234931462e-01
2.307962279122287574e-01
2.331614123966185281e-01
2.327951902829065722e-01
2.306131168553727795e-01
2.272103030487991060e-01
2.233954893642994266e-01
2.205267494735556888e-01
2.189550462355418503e-01
2.191381572923978283e-01
2.213354899746696469e-01
2.239143040253913919e-01
2.253486739707632747e-01
2.251655629139072967e-01
2.226935636463515111e-01
2.178868984038819512e-01
2.128971221045564133e-01
2.101351969969786626e-01
2.096469008453627214e-01
2.109744560075685893e-01
2.141636402478102885e-01
2.182531205175939071e-01
2.218237861262855881e-01
2.237464522232734121e-01
2.237006744590594176e-01
2.225714896084475258e-01
2.216711935789056065e-01
2.219763786736655697e-01
2.237617114780114103e-01
2.271492660298470856e-01
2.322458571123386384e-01
2.380138554033021103e-01
2.427594836268196776e-01
2.448652607806634796e-01
2.433545945616016060e-01
2.392193365276039929e-01
2.339396343882564622e-01
2.285378582110049739e-01
2.248756370738853039e-01
2.239906002990813827e-01
2.248146000549333390e-01
2.261574144718772050e-01
2.275002288888210711e-01
2.282021546067689866e-01
2.274239326151310525e-01
2.251960814233832930e-01
2.227088229010895093e-01
2.210913418988616486e-01
2.210608233893856522e-01
2.228766747032074891e-01
2.256233405560472416e-01
2.282174138615070125e-01
2.303231910153508144e-01
2.312082277901547356e-01
2.303079317606128162e-01
2.282326731162450106e-01
2.257911923581652214e-01
2.236701559495834490e-01
2.232428968169194450e-01
2.248756370738853039e-01
2.275002288888210711e-01
2.306894131290627703e-01
2.334513382366405210e-01
2.344889675588243960e-01
2.337107455671864897e-01
2.315591906491286933e-01
2.291024506363109337e-01
2.275765251625110619e-01
2.272103030487991060e-01
2.282784508804589774e-01
2.307504501480147907e-01
2.337260048219245157e-01
2.362132633442182439e-01
2.372814111758781708e-01
2.366710409863582165e-01
2.351908932767723392e-01
2.336649678029724952e-01
2.323831904049806218e-01
2.320932645649586568e-01
2.331766716513565540e-01
2.351298562578203744e-01
2.375102999969481432e-01
2.395550401318399802e-01
2.404400769066438737e-01
2.397839289529099249e-01
2.378917813653980973e-01
2.354960783715323303e-01
2.338633381145664714e-01
2.339396343882564622e-01
2.352824488052003560e-01
2.376018555253761322e-01
2.403790398876918810e-01
2.423627430036316976e-01
2.430036317026276482e-01
2.422101504562517160e-01
2.403942991424298792e-01
2.386852626117740572e-01
2.375865962706381340e-01
2.373424481948301634e-01
2.387462996307260221e-01
2.417676320688497416e-01
2.449415570543534704e-01
2.470778527176732686e-01
2.478408154545732045e-01
2.471999267555772539e-01
2.458418530838953897e-01
2.443159276100955180e-01
2.425763725699636719e-01
2.418134098330637360e-01
2.433545945616016060e-01
2.463759269997253254e-01
2.492294076357310928e-01
2.511215552232428649e-01
2.518082216864528378e-01
2.515488143559068690e-01
2.504654072695089440e-01
2.482375560777611567e-01
2.460097048860133695e-01
2.456740012817774099e-01
2.470625934629352705e-01
2.488174077578051147e-01
2.509994811853389352e-01
2.536088137455366764e-01
2.547685171056245368e-01
2.539902951139866305e-01
2.524948881496627551e-01
2.508774071474348943e-01
2.496261482589190173e-01
2.493514816736350503e-01
2.502975554673909642e-01
2.526017029328287422e-01
2.555314798425245004e-01
2.575457014679403134e-01
2.580339976195562546e-01
2.575457014679403134e-01
2.561571092867824251e-01
2.541428876613666121e-01
2.529831843012787518e-01
2.533188879055146558e-01
2.547532578508865386e-01
2.569963682973723795e-01
2.596057008575701208e-01
2.617725150303659154e-01
2.626880703146458051e-01
2.619556260872218933e-01
2.600787377544480639e-01
2.577898495437482840e-01
2.561876277962584214e-01
2.561418500320444269e-01
2.575762199774163097e-01
2.600634784997100657e-01
2.622760704367198548e-01
2.635273293252357596e-01
2.643513290810876604e-01
2.642597735526596714e-01
2.627185888241218015e-01
2.607959227271339775e-01
2.598651081881160896e-01
2.603991821039460253e-01
2.621082186346018750e-01
2.646717734305856218e-01
2.681814020203253102e-01
2.718283639027069820e-01
2.739799188207648339e-01
2.740562150944548248e-01
2.728812524796289107e-01
2.718741416669210320e-01
2.717978453932309857e-01
2.725150303659168993e-01
2.750175481429487090e-01
2.798089541306802430e-01
2.848750267036957995e-01
2.885830256050294640e-01
2.911465804010132108e-01
2.925351725821710991e-01
2.922757652516250748e-01
2.910855433820612181e-01
2.898953215124973615e-01
2.890408032471693534e-01
2.897122104556413280e-01
2.923673207800531193e-01
2.952055421613208330e-01
2.967772453993346993e-01
2.965788750877407232e-01
2.947477645191808882e-01
2.918790246284371781e-01
2.884609515671254232e-01
2.852412488174077554e-01
2.835322122867519612e-01
2.844630268257697936e-01
2.878353221228674985e-01
2.916806543168431465e-01
2.946714682454908418e-01
2.960142826624347356e-01
2.951445051423688404e-01
2.929166539506210531e-01
2.900784325693532839e-01
2.873775444807276092e-01
2.857600634784996929e-01
2.851802117984557627e-01
2.859126560258796745e-01
2.883388775292214934e-01
2.912839136936551943e-01
2.927793206579790697e-01
2.914517654957732296e-01
2.878048036133915022e-01
2.837000640888698855e-01
2.803125095370341824e-01
2.783593249305703621e-01
2.787408062990203717e-01
2.814264351329081038e-01
2.851039155247657719e-01
2.882778405102694452e-01
2.900326548051393449e-01
2.903073213904232563e-01
2.886745811334573975e-01
2.847376934110538160e-01
2.804956205938902158e-01
2.783593249305703621e-01
2.788628803369243569e-01
2.811212500381481405e-01
2.840815454573198950e-01
2.867824335459456253e-01
2.879879146702474801e-01
2.861262855922117043e-01
2.810602130191961479e-01
2.747734000671406829e-01
2.692495498519852370e-01
2.656941434980315542e-01
2.650227362895596350e-01
2.669301431318094053e-01
2.699972533341472025e-01
2.725608081301308938e-01
2.731406598101748240e-01
2.711722159489730610e-01
2.669301431318094053e-01
2.612689596240119760e-01
2.558366649372844637e-01
2.519760734885708175e-01
2.503128147221289623e-01
2.508163701284829017e-01
2.528153324991607720e-01
2.546006653035065570e-01
2.545701467940305607e-01
2.529068880275887610e-01
2.501754814294869789e-01
2.463148899807733327e-01
2.422559282204657105e-01
2.395092623676259580e-01
2.390362254707480150e-01
2.407757805108798610e-01
2.433240760521256096e-01
2.455824457533494209e-01
2.472914822840052429e-01
2.481154820398571714e-01
2.479934080019531584e-01
2.476882229071932229e-01
2.485122226630451236e-01
2.513962218085268319e-01
2.560808130130924343e-01
2.618182927945799099e-01
2.676320688497573763e-01
2.724082155827509122e-01
2.749717703787347145e-01
2.742240668965727490e-01
2.707449568163090570e-01
2.660298471022675693e-01
2.614673299356059522e-01
2.586291085543382384e-01
2.581255531479842436e-01
2.594378490554521410e-01
2.615588854640339411e-01
2.628864406262397813e-01
2.623371074556718474e-01
2.595904416028321227e-01
2.544328135013885772e-01
2.475508896145512117e-01
2.406537064729758479e-01
2.355723746452223211e-01
2.331461531418805577e-01
2.331156346324045614e-01
2.345042268135624219e-01
2.351145970030823762e-01
2.333445234534745061e-01
2.293618579668569024e-01
2.234870448927274156e-01
2.162999359111301145e-01
2.094332712790307194e-01
2.047181615649891762e-01
2.025055696279793871e-01
2.021546067690054016e-01
2.032685323648792952e-01
2.048707541123691578e-01
2.055879390850550714e-01
2.047639393292031706e-01
2.024750511185033630e-01
1.992858668782616638e-01
1.957457197790459791e-01
1.929532761619922321e-01
1.922818689535202852e-01
1.939298684652241422e-01
1.968443861201819023e-01
1.995300149540696621e-01
2.004913480025635741e-01
1.993163853877376601e-01
1.969817194128238580e-01
1.940366832483901571e-01
1.910763878292184303e-01
1.893978698080385770e-01
1.897793511764885588e-01
1.923429059724723056e-01
1.962034974211859240e-01
1.992858668782616638e-01
2.007507553331095429e-01
2.010254219183935098e-01
2.002624591814935739e-01
1.983703115939817463e-01
1.959135715811639589e-01
1.939756462294381645e-01
1.935026093325601937e-01
1.949522385326700746e-01
1.975920896023438122e-01
2.003997924741355852e-01
2.024597918637653648e-01
2.023377178258613796e-01
1.993774224066896528e-01
1.952116458632160434e-01
1.920224616229743164e-01
1.902829065828424704e-01
1.895962401196325531e-01
1.902981658375804963e-01
1.924649800103763186e-01
1.948912015137180542e-01
1.959288308359019570e-01
1.950743125705740322e-01
1.931363872188482100e-01
1.908322397534104597e-01
1.884823145237586595e-01
1.866664632099368226e-01
1.861171300393688888e-01
1.873989074373607344e-01
1.902523880733665018e-01
1.932126834925382286e-01
1.947996459852900653e-01
1.948759422589800561e-01
1.939756462294381645e-01
1.921140171514023332e-01
1.898861659596545182e-01
1.891079439680166119e-01
1.909237952818384487e-01
1.948759422589800561e-01
1.999114963225196162e-01
2.049623096407971468e-01
2.088839381084627855e-01
2.112796411023285525e-01
2.130649739066743931e-01
2.146977141636402520e-01
2.155064546647541823e-01
2.157658619953001511e-01
2.170323801385540263e-01
2.199774163029877549e-01
2.237159337137974158e-01
2.271340067751090874e-01
2.290719321268349096e-01
2.283547471541489959e-01
2.246620075075533296e-01
2.192144535660878191e-01
2.141331217383342922e-01
2.105929746391186075e-01
2.085787530137027945e-01
2.085787530137027945e-01
2.109134189886165966e-01
2.140720847193822995e-01
2.161015655995361384e-01
2.160252693258461198e-01
2.139500106814783142e-01
2.103946043275246314e-01
2.062440870387890479e-01
2.032685323648792952e-01
2.027954954680013522e-01
2.048707541123691578e-01
2.082735679189428313e-01
2.113864558854945674e-01
2.134617145298623453e-01
2.141636402478102885e-01
2.130344553971983967e-01
2.100283822138126755e-01
2.067018646809289928e-01
2.049165318765831245e-01
2.051911984618671192e-01
2.075563829462569176e-01
2.110812707907345764e-01
2.144230475783562573e-01
2.173986022522659822e-01
2.190313425092318411e-01
2.182531205175939071e-01
2.161015655995361384e-01
2.141178624835962940e-01
2.130344553971983967e-01
2.139805291909543106e-01
2.180547502059999310e-01
2.244026001770073608e-01
2.304300057985168015e-01
2.340006714072084826e-01
2.348246711630603833e-01
2.333903012176885283e-01
2.300637836848048456e-01
2.260353404339732197e-01
2.229224524674214836e-01
2.218390453810235863e-01
2.228614154484694909e-01
2.254097109897152396e-01
2.284005249183629904e-01
2.302316354869228254e-01
2.300943021942808142e-01
2.280800805688650013e-01
2.244331186864833572e-01
2.206946012756736963e-01
2.184972685934019054e-01
2.179784539323099402e-01
2.190618610187078652e-01
2.213660084841456432e-01
2.237464522232734121e-01
2.249061555833613280e-01
2.242042298654133847e-01
2.218695638904995826e-01
2.186651203955198852e-01
2.155369731742301509e-01
2.136295663319803251e-01
2.135685293130283602e-01
2.152317880794702154e-01
2.180394909512619328e-01
2.209997863704336596e-01
2.230140079958494725e-01
2.236243781853694268e-01
2.228461561937314928e-01
2.213202307199316210e-01
2.202978606524857441e-01
2.204504531998657257e-01
2.218237861262855881e-01
2.248298593096713094e-01
2.293771172215949006e-01
2.337412640766624861e-01
2.360454115421002641e-01
2.361369670705282808e-01
2.347483748893703925e-01
2.317270424512466731e-01
2.276985992004150472e-01
2.247993408001953131e-01
2.238227484969634029e-01
2.239295632801293900e-01
2.246925260170293259e-01
2.257454145939512269e-01
2.260200811792351938e-01
2.246620075075533296e-01
2.211218604083376449e-01
2.158421582689901419e-01
2.106540116580706001e-01
2.071749015778069358e-01
2.057557908871730790e-01
2.059541611987670551e-01
2.073732718894009397e-01
2.092196417126987729e-01
2.101657155064546867e-01
2.094790490432447416e-01
2.074190496536149064e-01
2.046266060365611594e-01
2.017578661458174216e-01
1.996368297372356493e-01
1.987975707266456948e-01
1.994079409161656491e-01
2.013153477584154749e-01
2.038789025543992217e-01
2.058320871608630698e-01
2.055726798303171010e-01
2.031464583269753099e-01
1.999725333414716089e-01
1.969817194128238580e-01
1.948912015137180542e-01
1.946165349284340873e-01
1.964018677327799278e-01
1.994384594256416732e-01
2.023377178258613796e-01
2.037415692617572660e-01
2.031311990722373118e-01
2.012237922299874859e-01
1.986144596697897169e-01
1.958067567979979995e-01
1.938840907010101755e-01
1.935636463515121863e-01
1.946470534379101114e-01
1.965392010254219113e-01
1.989043855098116820e-01
2.011627552110354933e-01
2.017578661458174216e-01
1.999114963225196162e-01
1.967680898464919115e-01
1.939298684652241422e-01
1.926023133030182743e-01
1.932279427472762268e-01
1.953794976653340232e-01
1.987823114719077244e-01
2.027191991943113336e-01
2.057252723776970826e-01
2.067629016998809854e-01
2.058320871608630698e-01
2.036042359691152548e-01
2.005829035309915631e-01
1.978209784234138124e-01
1.967070528275398911e-01
1.971953489791558600e-01
1.982787560655537573e-01
1.993163853877376601e-01
1.999420148319955848e-01
1.999420148319955848e-01
1.988128299813836930e-01
1.962034974211859240e-01
1.931669057283242341e-01
1.913815729239783936e-01
1.911221655934324248e-01
1.919309060945463274e-01
1.937925351725821865e-01
1.965392010254219113e-01
1.988891262550736838e-01
1.991790520950956767e-01
1.970732749412518470e-01
1.939298684652241422e-01
1.915341654713583752e-01
1.904507583849604779e-01
1.904812768944364743e-01
1.919156468398083293e-01
1.947233497116000744e-01
1.978972746971038033e-01
1.998199407940916272e-01
1.998046815393536291e-01
1.984618671224097353e-01
1.962797936948759425e-01
1.939146092104861441e-01
1.923581652272103037e-01
1.922666096987823148e-01
1.937925351725821865e-01
1.966154972991119021e-01
1.994842371898556399e-01
2.013763847773674676e-01
2.023071993163853832e-01
2.021546067690054016e-01
2.007660145878475411e-01
1.988891262550736838e-01
1.976378673665578067e-01
1.979888302255317922e-01
2.004608294930875501e-01
2.041840876491592127e-01
2.080751976073488552e-01
2.114474929044465323e-01
2.138584551530503253e-01
2.152012695699941913e-01
2.158726767784661382e-01
2.171697134311960098e-01
2.208014160588396557e-01
2.268440809350871223e-01
2.336191900387585285e-01
2.400280770287179233e-01
2.456434827723014136e-01
2.492294076357310928e-01
2.494125186925870707e-01
2.459181493575853805e-01
2.397228919339579600e-01
2.325510422070986016e-01
2.260811181981871865e-01
2.215033417767876267e-01
2.193670461134678007e-01
2.193365276039918321e-01
2.198858607745597660e-01
2.192449720755638432e-01
2.171239356669820153e-01
2.134006775109103804e-01
2.083193456831568258e-01
2.036347544785912789e-01
2.002777184362315721e-01
1.983092745750297536e-01
1.984618671224097353e-01
2.002929776909695703e-01
2.022766808069093869e-01
2.032990508743552915e-01
2.027344584490493318e-01
2.007049775688955207e-01
1.978362376781517828e-01
1.947843867305520671e-01
1.924039429914242982e-01
1.913357951597643991e-01
1.917172765282143532e-01
1.933347575304422139e-01
1.954252754295480177e-01
1.970427564317758784e-01
1.976073488570818382e-01
1.964934232612079168e-01
1.940214239936521312e-01
1.915646839808343715e-01
1.898251289407025255e-01
1.887569811090426264e-01
1.888943144016846376e-01
1.908322397534104597e-01
1.935331278420361900e-01
1.953794976653340232e-01
1.961424604022339591e-01
1.956846827600939864e-01
1.932737205114902213e-01
1.899472029786065386e-01
1.884060182500686687e-01
1.893673512985625806e-01
1.914273506881923881e-01
1.939298684652241422e-01
1.969359416486098913e-01
1.997283852656636383e-01
2.008117923520615078e-01
1.999572740867335829e-01
1.980803857539597812e-01
1.958220160527359699e-01
1.942808313241981277e-01
1.944334238715781094e-01
1.963713492233039315e-01
1.993469038972136564e-01
2.023071993163853832e-01
2.048402356028931337e-01
2.061677907650990293e-01
2.052064577166051174e-01
2.024445326090273667e-01
1.992858668782616638e-01
1.968901638843958690e-01
1.959593493453779811e-01
1.965544602801599094e-01
1.984618671224097353e-01
2.011169774468214988e-01
2.031464583269753099e-01
2.035889767143772566e-01
2.028260139774773207e-01
2.012237922299874859e-01
1.991332743308816822e-01
1.972563859981078527e-01
1.965086825159459150e-01
1.974547563097018288e-01
1.997589037751396068e-01
2.029175695059053097e-01
2.055726798303171010e-01
2.063661610766930055e-01
2.056184575945310677e-01
2.043366801965392221e-01
2.029938657795953283e-01
2.018646809289834088e-01
2.022156437879573943e-01
2.043366801965392221e-01
2.068391979735709485e-01
2.089602343821527763e-01
2.108066042054506095e-01
2.118442335276345123e-01
2.110812707907345764e-01
2.085329752494888278e-01
2.054353465376750898e-01
2.034821619312112695e-01
2.035279396954252640e-01
2.050386059144871376e-01
2.071749015778069358e-01
2.098910489211706643e-01
2.122867519150364590e-01
2.127903073213904261e-01
2.116458632160405362e-01
2.099215674306466883e-01
2.083040864284188276e-01
2.071901608325449340e-01
2.065492721335489834e-01
2.070070497756889560e-01
2.093569750053407286e-01
2.125156407361064315e-01
2.151249732963042005e-01
2.164830469679860925e-01
2.163151951658680849e-01
2.150181585131382134e-01
2.133548997466963582e-01
2.120578630939664866e-01
2.113864558854945674e-01
2.119205298013245031e-01
2.141788995025483144e-01
2.166661580248420704e-01
2.182073427533799403e-01
2.192297128208258450e-01
